# timestamp,IBI
2.234375000000000000e+00,1.277343750000000000e+00
3.519531250000000000e+00,1.285156250000000000e+00
4.796875000000000000e+00,1.277343750000000000e+00
6.082031250000000000e+00,1.285156250000000000e+00
7.386718750000000000e+00,1.304687500000000000e+00
8.699218750000000000e+00,1.312500000000000000e+00
1.000781250000000000e+01,1.308593750000000000e+00
1.129687500000000000e+01,1.289062500000000000e+00
1.256250000000000000e+01,1.265625000000000000e+00
1.380078125000000000e+01,1.238281250000000000e+00
1.503906250000000000e+01,1.238281250000000000e+00
1.626562500000000000e+01,1.226562500000000000e+00
1.750000000000000000e+01,1.234375000000000000e+00
1.872265625000000000e+01,1.222656250000000000e+00
1.991406250000000000e+01,1.191406250000000000e+00
2.084375000000000000e+01,9.296875000000000000e-01
2.208984375000000000e+01,1.246093750000000000e+00
2.330468750000000000e+01,1.214843750000000000e+00
2.452343750000000000e+01,1.218750000000000000e+00
2.574218750000000000e+01,1.218750000000000000e+00
2.694531250000000000e+01,1.203125000000000000e+00
2.818359375000000000e+01,1.238281250000000000e+00
2.942187500000000000e+01,1.238281250000000000e+00
3.066796875000000000e+01,1.246093750000000000e+00
3.192187500000000000e+01,1.253906250000000000e+00
3.318359375000000000e+01,1.261718750000000000e+00
3.446093750000000000e+01,1.277343750000000000e+00
3.573437500000000000e+01,1.273437500000000000e+00
3.701953125000000000e+01,1.285156250000000000e+00
3.831250000000000000e+01,1.292968750000000000e+00
3.958984375000000000e+01,1.277343750000000000e+00
4.087890625000000000e+01,1.289062500000000000e+00
4.216406250000000000e+01,1.285156250000000000e+00
4.346093750000000000e+01,1.296875000000000000e+00
4.476562500000000000e+01,1.304687500000000000e+00
4.605859375000000000e+01,1.292968750000000000e+00
4.734765625000000000e+01,1.289062500000000000e+00
4.863671875000000000e+01,1.289062500000000000e+00
4.991796875000000000e+01,1.281250000000000000e+00
5.119140625000000000e+01,1.273437500000000000e+00
5.246875000000000000e+01,1.277343750000000000e+00
5.374609375000000000e+01,1.277343750000000000e+00
5.503906250000000000e+01,1.292968750000000000e+00
5.632031250000000000e+01,1.281250000000000000e+00
5.757812500000000000e+01,1.257812500000000000e+00
5.883203125000000000e+01,1.253906250000000000e+00
6.008984375000000000e+01,1.257812500000000000e+00
6.133593750000000000e+01,1.246093750000000000e+00
6.259375000000000000e+01,1.257812500000000000e+00
6.383984375000000000e+01,1.246093750000000000e+00
6.508984375000000000e+01,1.250000000000000000e+00
6.634765625000000000e+01,1.257812500000000000e+00
6.759765625000000000e+01,1.250000000000000000e+00
6.885156250000000000e+01,1.253906250000000000e+00
7.009765625000000000e+01,1.246093750000000000e+00
7.133984375000000000e+01,1.242187500000000000e+00
7.259375000000000000e+01,1.253906250000000000e+00
7.382812500000000000e+01,1.234375000000000000e+00
7.507421875000000000e+01,1.246093750000000000e+00
7.632421875000000000e+01,1.250000000000000000e+00
7.757031250000000000e+01,1.246093750000000000e+00
7.882031250000000000e+01,1.250000000000000000e+00
8.006250000000000000e+01,1.242187500000000000e+00
8.129296875000000000e+01,1.230468750000000000e+00
8.254296875000000000e+01,1.250000000000000000e+00
8.378515625000000000e+01,1.242187500000000000e+00
8.501171875000000000e+01,1.226562500000000000e+00
8.623828125000000000e+01,1.226562500000000000e+00
8.746875000000000000e+01,1.230468750000000000e+00
8.869531250000000000e+01,1.226562500000000000e+00
8.994531250000000000e+01,1.250000000000000000e+00
9.119531250000000000e+01,1.250000000000000000e+00
9.243359375000000000e+01,1.238281250000000000e+00
9.367578125000000000e+01,1.242187500000000000e+00
9.490625000000000000e+01,1.230468750000000000e+00
9.613281250000000000e+01,1.226562500000000000e+00
9.736328125000000000e+01,1.230468750000000000e+00
9.857421875000000000e+01,1.210937500000000000e+00
9.979687500000000000e+01,1.222656250000000000e+00
1.010078125000000000e+02,1.210937500000000000e+00
1.022304687500000000e+02,1.222656250000000000e+00
1.034335937500000000e+02,1.203125000000000000e+00
1.046523437500000000e+02,1.218750000000000000e+00
1.058632812500000000e+02,1.210937500000000000e+00
1.068945312500000000e+02,1.031250000000000000e+00
1.081484375000000000e+02,1.253906250000000000e+00
1.093320312500000000e+02,1.183593750000000000e+00
1.105273437500000000e+02,1.195312500000000000e+00
1.117265625000000000e+02,1.199218750000000000e+00
1.129257812500000000e+02,1.199218750000000000e+00
1.141406250000000000e+02,1.214843750000000000e+00
1.153554687500000000e+02,1.214843750000000000e+00
1.165781250000000000e+02,1.222656250000000000e+00
1.177968750000000000e+02,1.218750000000000000e+00
1.190156250000000000e+02,1.218750000000000000e+00
1.202460937500000000e+02,1.230468750000000000e+00
1.214687500000000000e+02,1.222656250000000000e+00
1.227187500000000000e+02,1.250000000000000000e+00
1.239687500000000000e+02,1.250000000000000000e+00
1.252031250000000000e+02,1.234375000000000000e+00
1.264414062500000000e+02,1.238281250000000000e+00
1.276718750000000000e+02,1.230468750000000000e+00
1.289062500000000000e+02,1.234375000000000000e+00
1.301250000000000000e+02,1.218750000000000000e+00
1.313476562500000000e+02,1.222656250000000000e+00
1.325820312500000000e+02,1.234375000000000000e+00
1.337968750000000000e+02,1.214843750000000000e+00
1.350273437500000000e+02,1.230468750000000000e+00
1.362656250000000000e+02,1.238281250000000000e+00
1.374843750000000000e+02,1.218750000000000000e+00
1.387226562500000000e+02,1.238281250000000000e+00
1.399492187500000000e+02,1.226562500000000000e+00
1.411835937500000000e+02,1.234375000000000000e+00
1.424179687500000000e+02,1.234375000000000000e+00
1.436406250000000000e+02,1.222656250000000000e+00
1.448789062500000000e+02,1.238281250000000000e+00
1.461054687500000000e+02,1.226562500000000000e+00
1.473281250000000000e+02,1.222656250000000000e+00
1.485585937500000000e+02,1.230468750000000000e+00
1.497929687500000000e+02,1.234375000000000000e+00
1.510429687500000000e+02,1.250000000000000000e+00
1.522968750000000000e+02,1.253906250000000000e+00
1.535390625000000000e+02,1.242187500000000000e+00
1.547812500000000000e+02,1.242187500000000000e+00
1.560117187500000000e+02,1.230468750000000000e+00
1.572382812500000000e+02,1.226562500000000000e+00
1.584687500000000000e+02,1.230468750000000000e+00
1.596875000000000000e+02,1.218750000000000000e+00
1.609101562500000000e+02,1.222656250000000000e+00
1.621328125000000000e+02,1.222656250000000000e+00
1.633632812500000000e+02,1.230468750000000000e+00
1.645976562500000000e+02,1.234375000000000000e+00
1.658242187500000000e+02,1.226562500000000000e+00
1.670585937500000000e+02,1.234375000000000000e+00
1.682851562500000000e+02,1.226562500000000000e+00
1.695078125000000000e+02,1.222656250000000000e+00
1.707343750000000000e+02,1.226562500000000000e+00
1.719492187500000000e+02,1.214843750000000000e+00
1.731718750000000000e+02,1.222656250000000000e+00
1.744062500000000000e+02,1.234375000000000000e+00
1.756210937500000000e+02,1.214843750000000000e+00
1.768515625000000000e+02,1.230468750000000000e+00
1.780820312500000000e+02,1.230468750000000000e+00
1.793203125000000000e+02,1.238281250000000000e+00
1.805703125000000000e+02,1.250000000000000000e+00
1.818125000000000000e+02,1.242187500000000000e+00
1.830468750000000000e+02,1.234375000000000000e+00
1.842851562500000000e+02,1.238281250000000000e+00
1.855117187500000000e+02,1.226562500000000000e+00
1.867460937500000000e+02,1.234375000000000000e+00
1.879843750000000000e+02,1.238281250000000000e+00
1.892187500000000000e+02,1.234375000000000000e+00
1.904531250000000000e+02,1.234375000000000000e+00
1.916875000000000000e+02,1.234375000000000000e+00
1.929218750000000000e+02,1.234375000000000000e+00
1.941757812500000000e+02,1.253906250000000000e+00
1.954062500000000000e+02,1.230468750000000000e+00
1.966484375000000000e+02,1.242187500000000000e+00
1.978945312500000000e+02,1.246093750000000000e+00
1.991250000000000000e+02,1.230468750000000000e+00
2.003554687500000000e+02,1.230468750000000000e+00
2.015781250000000000e+02,1.222656250000000000e+00
2.028007812500000000e+02,1.222656250000000000e+00
2.040234375000000000e+02,1.222656250000000000e+00
2.052460937500000000e+02,1.222656250000000000e+00
2.064882812500000000e+02,1.242187500000000000e+00
2.077187500000000000e+02,1.230468750000000000e+00
2.089609375000000000e+02,1.242187500000000000e+00
2.102070312500000000e+02,1.246093750000000000e+00
2.114375000000000000e+02,1.230468750000000000e+00
2.126796875000000000e+02,1.242187500000000000e+00
2.138984375000000000e+02,1.218750000000000000e+00
2.151210937500000000e+02,1.222656250000000000e+00
2.163632812500000000e+02,1.242187500000000000e+00
2.175898437500000000e+02,1.226562500000000000e+00
2.188359375000000000e+02,1.246093750000000000e+00
2.200898437500000000e+02,1.253906250000000000e+00
2.213281250000000000e+02,1.238281250000000000e+00
2.225703125000000000e+02,1.242187500000000000e+00
2.238164062500000000e+02,1.246093750000000000e+00
2.250429687500000000e+02,1.226562500000000000e+00
2.262460937500000000e+02,1.203125000000000000e+00
2.272929687500000000e+02,1.046875000000000000e+00
2.285468750000000000e+02,1.253906250000000000e+00
2.297382812500000000e+02,1.191406250000000000e+00
2.309492187500000000e+02,1.210937500000000000e+00
2.321679687500000000e+02,1.218750000000000000e+00
2.333906250000000000e+02,1.222656250000000000e+00
2.346250000000000000e+02,1.234375000000000000e+00
2.358476562500000000e+02,1.222656250000000000e+00
2.370664062500000000e+02,1.218750000000000000e+00
2.382890625000000000e+02,1.222656250000000000e+00
2.395273437500000000e+02,1.238281250000000000e+00
2.407617187500000000e+02,1.234375000000000000e+00
2.420078125000000000e+02,1.246093750000000000e+00
2.432695312500000000e+02,1.261718750000000000e+00
2.445078125000000000e+02,1.238281250000000000e+00
2.457460937500000000e+02,1.238281250000000000e+00
2.469726562500000000e+02,1.226562500000000000e+00
2.481992187500000000e+02,1.226562500000000000e+00
2.494179687500000000e+02,1.218750000000000000e+00
2.506328125000000000e+02,1.214843750000000000e+00
2.518515625000000000e+02,1.218750000000000000e+00
2.530703125000000000e+02,1.218750000000000000e+00
2.542695312500000000e+02,1.199218750000000000e+00
2.554921875000000000e+02,1.222656250000000000e+00
2.567109375000000000e+02,1.218750000000000000e+00
2.579140625000000000e+02,1.203125000000000000e+00
2.591289062500000000e+02,1.214843750000000000e+00
2.603515625000000000e+02,1.222656250000000000e+00
2.615703125000000000e+02,1.218750000000000000e+00
2.627929687500000000e+02,1.222656250000000000e+00
2.640117187500000000e+02,1.218750000000000000e+00
2.651875000000000000e+02,1.175781250000000000e+00
2.663945312500000000e+02,1.207031250000000000e+00
2.675703125000000000e+02,1.175781250000000000e+00
2.686601562500000000e+02,1.089843750000000000e+00
2.698593750000000000e+02,1.199218750000000000e+00
2.710664062500000000e+02,1.207031250000000000e+00
2.721718750000000000e+02,1.105468750000000000e+00
2.733476562500000000e+02,1.175781250000000000e+00
2.746289062500000000e+02,1.281250000000000000e+00
2.758242187500000000e+02,1.195312500000000000e+00
2.770273437500000000e+02,1.203125000000000000e+00
2.782656250000000000e+02,1.238281250000000000e+00
2.793671875000000000e+02,1.101562500000000000e+00
2.806093750000000000e+02,1.242187500000000000e+00
2.818437500000000000e+02,1.234375000000000000e+00
2.830546875000000000e+02,1.210937500000000000e+00
2.842773437500000000e+02,1.222656250000000000e+00
2.855078125000000000e+02,1.230468750000000000e+00
2.867382812500000000e+02,1.230468750000000000e+00
2.879765625000000000e+02,1.238281250000000000e+00
2.892031250000000000e+02,1.226562500000000000e+00
2.904257812500000000e+02,1.222656250000000000e+00
2.916523437500000000e+02,1.226562500000000000e+00
2.928476562500000000e+02,1.195312500000000000e+00
2.940820312500000000e+02,1.234375000000000000e+00
2.952226562500000000e+02,1.140625000000000000e+00
2.963359375000000000e+02,1.113281250000000000e+00
2.976328125000000000e+02,1.296875000000000000e+00
2.988671875000000000e+02,1.234375000000000000e+00
3.001093750000000000e+02,1.242187500000000000e+00
3.013515625000000000e+02,1.242187500000000000e+00
3.025859375000000000e+02,1.234375000000000000e+00
3.038203125000000000e+02,1.234375000000000000e+00
3.050585937500000000e+02,1.238281250000000000e+00
3.062968750000000000e+02,1.238281250000000000e+00
3.067734375000000000e+02,4.765625000000000000e-01
3.074257812500000000e+02,6.523437500000000000e-01
3.078320312500000000e+02,4.062500000000000000e-01
3.087695312500000000e+02,9.375000000000000000e-01
3.100039062500000000e+02,1.234375000000000000e+00
3.112343750000000000e+02,1.230468750000000000e+00
3.124687500000000000e+02,1.234375000000000000e+00
3.137109375000000000e+02,1.242187500000000000e+00
3.149492187500000000e+02,1.238281250000000000e+00
3.162031250000000000e+02,1.253906250000000000e+00
3.174531250000000000e+02,1.250000000000000000e+00
3.186953125000000000e+02,1.242187500000000000e+00
3.199453125000000000e+02,1.250000000000000000e+00
3.212031250000000000e+02,1.257812500000000000e+00
3.224375000000000000e+02,1.234375000000000000e+00
3.236953125000000000e+02,1.257812500000000000e+00
3.249570312500000000e+02,1.261718750000000000e+00
3.262265625000000000e+02,1.269531250000000000e+00
3.274960937500000000e+02,1.269531250000000000e+00
3.287656250000000000e+02,1.269531250000000000e+00
3.300273437500000000e+02,1.261718750000000000e+00
3.313046875000000000e+02,1.277343750000000000e+00
3.324335937500000000e+02,1.128906250000000000e+00
3.332421875000000000e+02,8.085937500000000000e-01
3.363359375000000000e+02,1.242187500000000000e+00
3.375976562500000000e+02,1.261718750000000000e+00
3.388554687500000000e+02,1.257812500000000000e+00
3.400937500000000000e+02,1.238281250000000000e+00
3.413476562500000000e+02,1.253906250000000000e+00
3.426054687500000000e+02,1.257812500000000000e+00
3.438437500000000000e+02,1.238281250000000000e+00
3.450976562500000000e+02,1.253906250000000000e+00
3.463242187500000000e+02,1.226562500000000000e+00
3.473867187500000000e+02,1.062500000000000000e+00
3.486601562500000000e+02,1.273437500000000000e+00
3.498632812500000000e+02,1.203125000000000000e+00
3.510859375000000000e+02,1.222656250000000000e+00
3.523320312500000000e+02,1.246093750000000000e+00
3.535664062500000000e+02,1.234375000000000000e+00
3.547929687500000000e+02,1.226562500000000000e+00
3.560312500000000000e+02,1.238281250000000000e+00
3.572539062500000000e+02,1.222656250000000000e+00
3.584804687500000000e+02,1.226562500000000000e+00
3.597265625000000000e+02,1.246093750000000000e+00
3.609609375000000000e+02,1.234375000000000000e+00
3.621992187500000000e+02,1.238281250000000000e+00
3.634609375000000000e+02,1.261718750000000000e+00
3.647070312500000000e+02,1.246093750000000000e+00
3.659414062500000000e+02,1.234375000000000000e+00
3.671875000000000000e+02,1.246093750000000000e+00
3.684218750000000000e+02,1.234375000000000000e+00
3.696562500000000000e+02,1.234375000000000000e+00
3.708554687500000000e+02,1.199218750000000000e+00
3.719062500000000000e+02,1.050781250000000000e+00
3.731562500000000000e+02,1.250000000000000000e+00
3.743554687500000000e+02,1.199218750000000000e+00
3.755703125000000000e+02,1.214843750000000000e+00
3.767890625000000000e+02,1.218750000000000000e+00
3.780000000000000000e+02,1.210937500000000000e+00
3.792304687500000000e+02,1.230468750000000000e+00
3.804648437500000000e+02,1.234375000000000000e+00
3.816914062500000000e+02,1.226562500000000000e+00
3.829218750000000000e+02,1.230468750000000000e+00
3.841562500000000000e+02,1.234375000000000000e+00
3.853789062500000000e+02,1.222656250000000000e+00
3.866171875000000000e+02,1.238281250000000000e+00
3.878593750000000000e+02,1.242187500000000000e+00
3.890937500000000000e+02,1.234375000000000000e+00
3.903320312500000000e+02,1.238281250000000000e+00
3.915703125000000000e+02,1.238281250000000000e+00
3.928085937500000000e+02,1.238281250000000000e+00
3.940390625000000000e+02,1.230468750000000000e+00
3.952851562500000000e+02,1.246093750000000000e+00
3.965234375000000000e+02,1.238281250000000000e+00
3.977695312500000000e+02,1.246093750000000000e+00
3.990273437500000000e+02,1.257812500000000000e+00
4.002773437500000000e+02,1.250000000000000000e+00
4.015273437500000000e+02,1.250000000000000000e+00
4.027656250000000000e+02,1.238281250000000000e+00
4.040039062500000000e+02,1.238281250000000000e+00
4.052500000000000000e+02,1.246093750000000000e+00
4.064882812500000000e+02,1.238281250000000000e+00
4.077148437500000000e+02,1.226562500000000000e+00
4.089531250000000000e+02,1.238281250000000000e+00
4.101914062500000000e+02,1.238281250000000000e+00
4.114257812500000000e+02,1.234375000000000000e+00
4.126640625000000000e+02,1.238281250000000000e+00
4.139062500000000000e+02,1.242187500000000000e+00
4.151445312500000000e+02,1.238281250000000000e+00
4.163906250000000000e+02,1.246093750000000000e+00
4.176250000000000000e+02,1.234375000000000000e+00
4.188632812500000000e+02,1.238281250000000000e+00
4.201015625000000000e+02,1.238281250000000000e+00
4.213242187500000000e+02,1.222656250000000000e+00
4.225585937500000000e+02,1.234375000000000000e+00
4.237812500000000000e+02,1.222656250000000000e+00
4.250078125000000000e+02,1.226562500000000000e+00
4.262578125000000000e+02,1.250000000000000000e+00
4.274921875000000000e+02,1.234375000000000000e+00
4.287460937500000000e+02,1.253906250000000000e+00
4.300000000000000000e+02,1.253906250000000000e+00
4.312460937500000000e+02,1.246093750000000000e+00
4.324921875000000000e+02,1.246093750000000000e+00
4.337187500000000000e+02,1.226562500000000000e+00
4.349414062500000000e+02,1.222656250000000000e+00
4.361757812500000000e+02,1.234375000000000000e+00
4.374140625000000000e+02,1.238281250000000000e+00
4.386484375000000000e+02,1.234375000000000000e+00
4.399023437500000000e+02,1.253906250000000000e+00
4.411523437500000000e+02,1.250000000000000000e+00
4.423867187500000000e+02,1.234375000000000000e+00
4.436289062500000000e+02,1.242187500000000000e+00
4.448593750000000000e+02,1.230468750000000000e+00
4.460937500000000000e+02,1.234375000000000000e+00
4.473281250000000000e+02,1.234375000000000000e+00
4.485625000000000000e+02,1.234375000000000000e+00
4.497929687500000000e+02,1.230468750000000000e+00
4.510273437500000000e+02,1.234375000000000000e+00
4.522617187500000000e+02,1.234375000000000000e+00
4.534921875000000000e+02,1.230468750000000000e+00
4.547187500000000000e+02,1.226562500000000000e+00
4.559414062500000000e+02,1.222656250000000000e+00
4.571757812500000000e+02,1.234375000000000000e+00
4.584062500000000000e+02,1.230468750000000000e+00
4.596328125000000000e+02,1.226562500000000000e+00
4.608671875000000000e+02,1.234375000000000000e+00
4.620937500000000000e+02,1.226562500000000000e+00
4.633203125000000000e+02,1.226562500000000000e+00
4.645585937500000000e+02,1.238281250000000000e+00
4.657812500000000000e+02,1.222656250000000000e+00
4.670039062500000000e+02,1.222656250000000000e+00
4.682421875000000000e+02,1.238281250000000000e+00
4.694648437500000000e+02,1.222656250000000000e+00
4.707031250000000000e+02,1.238281250000000000e+00
4.719375000000000000e+02,1.234375000000000000e+00
4.731562500000000000e+02,1.218750000000000000e+00
4.743750000000000000e+02,1.218750000000000000e+00
4.756015625000000000e+02,1.226562500000000000e+00
4.768203125000000000e+02,1.218750000000000000e+00
4.780390625000000000e+02,1.218750000000000000e+00
4.792656250000000000e+02,1.226562500000000000e+00
4.804921875000000000e+02,1.226562500000000000e+00
4.817148437500000000e+02,1.222656250000000000e+00
4.829531250000000000e+02,1.238281250000000000e+00
4.841796875000000000e+02,1.226562500000000000e+00
4.854101562500000000e+02,1.230468750000000000e+00
4.866406250000000000e+02,1.230468750000000000e+00
4.878710937500000000e+02,1.230468750000000000e+00
4.890937500000000000e+02,1.222656250000000000e+00
4.903320312500000000e+02,1.238281250000000000e+00
4.915625000000000000e+02,1.230468750000000000e+00
4.927851562500000000e+02,1.222656250000000000e+00
4.940117187500000000e+02,1.226562500000000000e+00
4.952500000000000000e+02,1.238281250000000000e+00
4.964843750000000000e+02,1.234375000000000000e+00
4.977226562500000000e+02,1.238281250000000000e+00
4.989453125000000000e+02,1.222656250000000000e+00
5.001757812500000000e+02,1.230468750000000000e+00
5.014179687500000000e+02,1.242187500000000000e+00
5.026562500000000000e+02,1.238281250000000000e+00
5.038828125000000000e+02,1.226562500000000000e+00
5.051171875000000000e+02,1.234375000000000000e+00
5.063437500000000000e+02,1.226562500000000000e+00
5.071171875000000000e+02,7.734375000000000000e-01
5.077187500000000000e+02,6.015625000000000000e-01
5.088320312500000000e+02,1.113281250000000000e+00
5.096054687500000000e+02,7.734375000000000000e-01
5.100625000000000000e+02,4.570312500000000000e-01
5.113046875000000000e+02,1.242187500000000000e+00
5.125468750000000000e+02,1.242187500000000000e+00
5.137929687500000000e+02,1.246093750000000000e+00
5.150195312500000000e+02,1.226562500000000000e+00
5.162500000000000000e+02,1.230468750000000000e+00
5.174843750000000000e+02,1.234375000000000000e+00
5.187109375000000000e+02,1.226562500000000000e+00
5.199531250000000000e+02,1.242187500000000000e+00
5.211953125000000000e+02,1.242187500000000000e+00
5.224335937500000000e+02,1.238281250000000000e+00
5.236757812500000000e+02,1.242187500000000000e+00
5.249062500000000000e+02,1.230468750000000000e+00
5.261484375000000000e+02,1.242187500000000000e+00
5.273867187500000000e+02,1.238281250000000000e+00
5.286132812500000000e+02,1.226562500000000000e+00
5.298437500000000000e+02,1.230468750000000000e+00
5.310859375000000000e+02,1.242187500000000000e+00
5.323164062500000000e+02,1.230468750000000000e+00
5.335585937500000000e+02,1.242187500000000000e+00
5.348007812500000000e+02,1.242187500000000000e+00
5.360273437500000000e+02,1.226562500000000000e+00
5.372578125000000000e+02,1.230468750000000000e+00
5.384921875000000000e+02,1.234375000000000000e+00
5.397148437500000000e+02,1.222656250000000000e+00
5.409492187500000000e+02,1.234375000000000000e+00
5.421914062500000000e+02,1.242187500000000000e+00
5.434179687500000000e+02,1.226562500000000000e+00
5.446601562500000000e+02,1.242187500000000000e+00
5.458984375000000000e+02,1.238281250000000000e+00
5.471289062500000000e+02,1.230468750000000000e+00
5.483671875000000000e+02,1.238281250000000000e+00
5.495976562500000000e+02,1.230468750000000000e+00
5.508281250000000000e+02,1.230468750000000000e+00
5.520585937500000000e+02,1.230468750000000000e+00
5.532851562500000000e+02,1.226562500000000000e+00
5.545078125000000000e+02,1.222656250000000000e+00
5.557382812500000000e+02,1.230468750000000000e+00
5.569570312500000000e+02,1.218750000000000000e+00
5.581835937500000000e+02,1.226562500000000000e+00
5.594101562500000000e+02,1.226562500000000000e+00
5.606406250000000000e+02,1.230468750000000000e+00
5.618593750000000000e+02,1.218750000000000000e+00
5.630820312500000000e+02,1.222656250000000000e+00
5.642890625000000000e+02,1.207031250000000000e+00
5.655039062500000000e+02,1.214843750000000000e+00
5.667187500000000000e+02,1.214843750000000000e+00
5.679335937500000000e+02,1.214843750000000000e+00
5.691484375000000000e+02,1.214843750000000000e+00
5.703671875000000000e+02,1.218750000000000000e+00
5.715781250000000000e+02,1.210937500000000000e+00
5.728046875000000000e+02,1.226562500000000000e+00
5.740312500000000000e+02,1.226562500000000000e+00
5.752539062500000000e+02,1.222656250000000000e+00
5.764648437500000000e+02,1.210937500000000000e+00
5.776796875000000000e+02,1.214843750000000000e+00
5.788945312500000000e+02,1.214843750000000000e+00
5.801132812500000000e+02,1.218750000000000000e+00
5.813359375000000000e+02,1.222656250000000000e+00
5.825546875000000000e+02,1.218750000000000000e+00
5.837812500000000000e+02,1.226562500000000000e+00
5.850039062500000000e+02,1.222656250000000000e+00
5.862265625000000000e+02,1.222656250000000000e+00
5.874531250000000000e+02,1.226562500000000000e+00
5.886875000000000000e+02,1.234375000000000000e+00
5.899101562500000000e+02,1.222656250000000000e+00
5.911367187500000000e+02,1.226562500000000000e+00
5.923632812500000000e+02,1.226562500000000000e+00
5.935898437500000000e+02,1.226562500000000000e+00
5.948242187500000000e+02,1.234375000000000000e+00
5.960468750000000000e+02,1.222656250000000000e+00
5.972695312500000000e+02,1.222656250000000000e+00
5.985078125000000000e+02,1.238281250000000000e+00
5.997304687500000000e+02,1.222656250000000000e+00
6.009570312500000000e+02,1.226562500000000000e+00
6.021875000000000000e+02,1.230468750000000000e+00
6.034062500000000000e+02,1.218750000000000000e+00
6.046328125000000000e+02,1.226562500000000000e+00
6.058593750000000000e+02,1.226562500000000000e+00
6.070781250000000000e+02,1.218750000000000000e+00
6.083007812500000000e+02,1.222656250000000000e+00
6.095273437500000000e+02,1.226562500000000000e+00
6.107382812500000000e+02,1.210937500000000000e+00
6.119609375000000000e+02,1.222656250000000000e+00
6.131835937500000000e+02,1.222656250000000000e+00
6.143945312500000000e+02,1.210937500000000000e+00
6.156132812500000000e+02,1.218750000000000000e+00
6.168320312500000000e+02,1.218750000000000000e+00
6.180429687500000000e+02,1.210937500000000000e+00
6.192539062500000000e+02,1.210937500000000000e+00
6.204101562500000000e+02,1.156250000000000000e+00
6.216015625000000000e+02,1.191406250000000000e+00
6.228906250000000000e+02,1.289062500000000000e+00
6.241054687500000000e+02,1.214843750000000000e+00
6.253281250000000000e+02,1.222656250000000000e+00
6.265429687500000000e+02,1.214843750000000000e+00
6.277578125000000000e+02,1.214843750000000000e+00
6.289843750000000000e+02,1.226562500000000000e+00
6.301992187500000000e+02,1.214843750000000000e+00
6.314023437500000000e+02,1.203125000000000000e+00
6.326328125000000000e+02,1.230468750000000000e+00
6.338554687500000000e+02,1.222656250000000000e+00
6.350664062500000000e+02,1.210937500000000000e+00
6.363007812500000000e+02,1.234375000000000000e+00
6.375273437500000000e+02,1.226562500000000000e+00
6.387695312500000000e+02,1.242187500000000000e+00
6.400156250000000000e+02,1.246093750000000000e+00
6.412578125000000000e+02,1.242187500000000000e+00
6.424882812500000000e+02,1.230468750000000000e+00
6.437187500000000000e+02,1.230468750000000000e+00
6.449531250000000000e+02,1.234375000000000000e+00
6.461757812500000000e+02,1.222656250000000000e+00
6.474101562500000000e+02,1.234375000000000000e+00
6.486289062500000000e+02,1.218750000000000000e+00
6.498593750000000000e+02,1.230468750000000000e+00
6.510976562500000000e+02,1.238281250000000000e+00
6.523359375000000000e+02,1.238281250000000000e+00
6.535625000000000000e+02,1.226562500000000000e+00
6.548007812500000000e+02,1.238281250000000000e+00
6.560429687500000000e+02,1.242187500000000000e+00
6.572734375000000000e+02,1.230468750000000000e+00
6.585156250000000000e+02,1.242187500000000000e+00
6.597539062500000000e+02,1.238281250000000000e+00
6.609804687500000000e+02,1.226562500000000000e+00
6.622109375000000000e+02,1.230468750000000000e+00
6.634375000000000000e+02,1.226562500000000000e+00
6.646445312500000000e+02,1.207031250000000000e+00
6.658398437500000000e+02,1.195312500000000000e+00
6.667343750000000000e+02,8.945312500000000000e-01
6.679414062500000000e+02,1.207031250000000000e+00
6.691171875000000000e+02,1.175781250000000000e+00
6.703007812500000000e+02,1.183593750000000000e+00
6.714960937500000000e+02,1.195312500000000000e+00
6.726914062500000000e+02,1.195312500000000000e+00
6.738906250000000000e+02,1.199218750000000000e+00
6.751054687500000000e+02,1.214843750000000000e+00
6.763203125000000000e+02,1.214843750000000000e+00
6.775195312500000000e+02,1.199218750000000000e+00
6.787343750000000000e+02,1.214843750000000000e+00
6.799531250000000000e+02,1.218750000000000000e+00
6.811562500000000000e+02,1.203125000000000000e+00
6.823750000000000000e+02,1.218750000000000000e+00
6.835976562500000000e+02,1.222656250000000000e+00
6.848164062500000000e+02,1.218750000000000000e+00
6.860585937500000000e+02,1.242187500000000000e+00
6.872968750000000000e+02,1.238281250000000000e+00
6.885156250000000000e+02,1.218750000000000000e+00
6.897382812500000000e+02,1.222656250000000000e+00
6.909648437500000000e+02,1.226562500000000000e+00
6.921757812500000000e+02,1.210937500000000000e+00
6.934023437500000000e+02,1.226562500000000000e+00
6.946210937500000000e+02,1.218750000000000000e+00
6.958359375000000000e+02,1.214843750000000000e+00
6.970703125000000000e+02,1.234375000000000000e+00
6.982968750000000000e+02,1.226562500000000000e+00
6.995195312500000000e+02,1.222656250000000000e+00
7.007421875000000000e+02,1.222656250000000000e+00
7.019648437500000000e+02,1.222656250000000000e+00
7.031718750000000000e+02,1.207031250000000000e+00
7.043945312500000000e+02,1.222656250000000000e+00
7.056210937500000000e+02,1.226562500000000000e+00
7.068398437500000000e+02,1.218750000000000000e+00
7.080664062500000000e+02,1.226562500000000000e+00
7.093007812500000000e+02,1.234375000000000000e+00
7.105234375000000000e+02,1.222656250000000000e+00
7.117539062500000000e+02,1.230468750000000000e+00
7.129765625000000000e+02,1.222656250000000000e+00
7.141953125000000000e+02,1.218750000000000000e+00
7.154101562500000000e+02,1.214843750000000000e+00
7.166210937500000000e+02,1.210937500000000000e+00
7.178242187500000000e+02,1.203125000000000000e+00
7.190351562500000000e+02,1.210937500000000000e+00
7.202343750000000000e+02,1.199218750000000000e+00
7.212343750000000000e+02,1.000000000000000000e+00
7.221210937500000000e+02,8.867187500000000000e-01
7.233164062500000000e+02,1.195312500000000000e+00
7.245000000000000000e+02,1.183593750000000000e+00
7.256953125000000000e+02,1.195312500000000000e+00
7.268984375000000000e+02,1.203125000000000000e+00
7.281171875000000000e+02,1.218750000000000000e+00
7.293359375000000000e+02,1.218750000000000000e+00
7.305507812500000000e+02,1.214843750000000000e+00
7.317734375000000000e+02,1.222656250000000000e+00
7.329960937500000000e+02,1.222656250000000000e+00
7.342109375000000000e+02,1.214843750000000000e+00
7.354414062500000000e+02,1.230468750000000000e+00
7.366875000000000000e+02,1.246093750000000000e+00
7.379296875000000000e+02,1.242187500000000000e+00
7.391796875000000000e+02,1.250000000000000000e+00
7.404140625000000000e+02,1.234375000000000000e+00
7.416171875000000000e+02,1.203125000000000000e+00
7.425390625000000000e+02,9.218750000000000000e-01
7.435937500000000000e+02,1.054687500000000000e+00
7.448437500000000000e+02,1.250000000000000000e+00
7.460546875000000000e+02,1.210937500000000000e+00
7.472773437500000000e+02,1.222656250000000000e+00
7.484921875000000000e+02,1.214843750000000000e+00
7.497109375000000000e+02,1.218750000000000000e+00
7.509453125000000000e+02,1.234375000000000000e+00
7.521640625000000000e+02,1.218750000000000000e+00
7.533945312500000000e+02,1.230468750000000000e+00
7.546210937500000000e+02,1.226562500000000000e+00
7.558515625000000000e+02,1.230468750000000000e+00
7.570859375000000000e+02,1.234375000000000000e+00
7.583203125000000000e+02,1.234375000000000000e+00
7.595468750000000000e+02,1.226562500000000000e+00
7.607851562500000000e+02,1.238281250000000000e+00
7.620156250000000000e+02,1.230468750000000000e+00
7.632460937500000000e+02,1.230468750000000000e+00
7.644804687500000000e+02,1.234375000000000000e+00
7.657187500000000000e+02,1.238281250000000000e+00
7.669531250000000000e+02,1.234375000000000000e+00
7.681914062500000000e+02,1.238281250000000000e+00
7.694179687500000000e+02,1.226562500000000000e+00
7.706406250000000000e+02,1.222656250000000000e+00
7.718632812500000000e+02,1.222656250000000000e+00
7.730742187500000000e+02,1.210937500000000000e+00
7.742929687500000000e+02,1.218750000000000000e+00
7.755039062500000000e+02,1.210937500000000000e+00
7.767265625000000000e+02,1.222656250000000000e+00
7.779492187500000000e+02,1.222656250000000000e+00
7.791796875000000000e+02,1.230468750000000000e+00
7.804140625000000000e+02,1.234375000000000000e+00
7.816406250000000000e+02,1.226562500000000000e+00
7.828671875000000000e+02,1.226562500000000000e+00
7.840859375000000000e+02,1.218750000000000000e+00
7.853007812500000000e+02,1.214843750000000000e+00
7.865195312500000000e+02,1.218750000000000000e+00
7.877421875000000000e+02,1.222656250000000000e+00
7.889609375000000000e+02,1.218750000000000000e+00
7.901875000000000000e+02,1.226562500000000000e+00
7.914179687500000000e+02,1.230468750000000000e+00
7.926523437500000000e+02,1.234375000000000000e+00
7.938984375000000000e+02,1.246093750000000000e+00
7.951289062500000000e+02,1.230468750000000000e+00
7.963671875000000000e+02,1.238281250000000000e+00
7.975859375000000000e+02,1.218750000000000000e+00
7.988085937500000000e+02,1.222656250000000000e+00
8.000390625000000000e+02,1.230468750000000000e+00
8.012617187500000000e+02,1.222656250000000000e+00
8.024960937500000000e+02,1.234375000000000000e+00
8.037148437500000000e+02,1.218750000000000000e+00
8.049375000000000000e+02,1.222656250000000000e+00
8.061718750000000000e+02,1.234375000000000000e+00
8.073906250000000000e+02,1.218750000000000000e+00
8.086171875000000000e+02,1.226562500000000000e+00
8.092578125000000000e+02,6.406250000000000000e-01
8.097187500000000000e+02,4.609375000000000000e-01
8.101328125000000000e+02,4.140625000000000000e-01
8.110585937500000000e+02,9.257812500000000000e-01
8.122890625000000000e+02,1.230468750000000000e+00
8.135156250000000000e+02,1.226562500000000000e+00
8.147460937500000000e+02,1.230468750000000000e+00
8.159765625000000000e+02,1.230468750000000000e+00
8.171953125000000000e+02,1.218750000000000000e+00
8.184257812500000000e+02,1.230468750000000000e+00
8.196523437500000000e+02,1.226562500000000000e+00
8.208789062500000000e+02,1.226562500000000000e+00
8.221171875000000000e+02,1.238281250000000000e+00
8.233398437500000000e+02,1.222656250000000000e+00
8.245781250000000000e+02,1.238281250000000000e+00
8.258242187500000000e+02,1.246093750000000000e+00
8.270585937500000000e+02,1.234375000000000000e+00
8.283007812500000000e+02,1.242187500000000000e+00
8.295312500000000000e+02,1.230468750000000000e+00
8.307656250000000000e+02,1.234375000000000000e+00
8.319960937500000000e+02,1.230468750000000000e+00
8.332226562500000000e+02,1.226562500000000000e+00
8.344531250000000000e+02,1.230468750000000000e+00
8.356875000000000000e+02,1.234375000000000000e+00
8.369140625000000000e+02,1.226562500000000000e+00
8.381445312500000000e+02,1.230468750000000000e+00
8.393828125000000000e+02,1.238281250000000000e+00
8.406171875000000000e+02,1.234375000000000000e+00
8.418593750000000000e+02,1.242187500000000000e+00
8.430859375000000000e+02,1.226562500000000000e+00
8.443203125000000000e+02,1.234375000000000000e+00
8.455585937500000000e+02,1.238281250000000000e+00
8.467929687500000000e+02,1.234375000000000000e+00
8.480312500000000000e+02,1.238281250000000000e+00
8.492695312500000000e+02,1.238281250000000000e+00
8.505078125000000000e+02,1.238281250000000000e+00
8.517539062500000000e+02,1.246093750000000000e+00
8.530000000000000000e+02,1.246093750000000000e+00
8.542421875000000000e+02,1.242187500000000000e+00
8.554921875000000000e+02,1.250000000000000000e+00
8.567304687500000000e+02,1.238281250000000000e+00
8.579648437500000000e+02,1.234375000000000000e+00
8.592031250000000000e+02,1.238281250000000000e+00
8.604375000000000000e+02,1.234375000000000000e+00
8.616796875000000000e+02,1.242187500000000000e+00
8.629140625000000000e+02,1.234375000000000000e+00
8.641562500000000000e+02,1.242187500000000000e+00
8.654062500000000000e+02,1.250000000000000000e+00
8.659453125000000000e+02,5.390625000000000000e-01
8.668359375000000000e+02,8.906250000000000000e-01
8.678906250000000000e+02,1.054687500000000000e+00
8.691367187500000000e+02,1.246093750000000000e+00
8.703671875000000000e+02,1.230468750000000000e+00
8.716054687500000000e+02,1.238281250000000000e+00
8.728515625000000000e+02,1.246093750000000000e+00
8.740937500000000000e+02,1.242187500000000000e+00
8.753593750000000000e+02,1.265625000000000000e+00
8.766250000000000000e+02,1.265625000000000000e+00
8.778710937500000000e+02,1.246093750000000000e+00
8.791250000000000000e+02,1.253906250000000000e+00
8.803632812500000000e+02,1.238281250000000000e+00
8.815937500000000000e+02,1.230468750000000000e+00
8.828359375000000000e+02,1.242187500000000000e+00
8.840585937500000000e+02,1.222656250000000000e+00
8.852968750000000000e+02,1.238281250000000000e+00
8.865234375000000000e+02,1.226562500000000000e+00
8.877460937500000000e+02,1.222656250000000000e+00
8.889843750000000000e+02,1.238281250000000000e+00
8.902070312500000000e+02,1.222656250000000000e+00
8.914296875000000000e+02,1.222656250000000000e+00
8.926523437500000000e+02,1.222656250000000000e+00
8.938750000000000000e+02,1.222656250000000000e+00
8.950937500000000000e+02,1.218750000000000000e+00
8.961210937500000000e+02,1.027343750000000000e+00
8.970312500000000000e+02,9.101562500000000000e-01
8.982265625000000000e+02,1.195312500000000000e+00
8.994140625000000000e+02,1.187500000000000000e+00
9.006054687500000000e+02,1.191406250000000000e+00
9.018125000000000000e+02,1.207031250000000000e+00
9.030312500000000000e+02,1.218750000000000000e+00
9.042421875000000000e+02,1.210937500000000000e+00
9.054609375000000000e+02,1.218750000000000000e+00
9.066679687500000000e+02,1.207031250000000000e+00
9.078867187500000000e+02,1.218750000000000000e+00
9.091093750000000000e+02,1.222656250000000000e+00
9.103320312500000000e+02,1.222656250000000000e+00
9.115703125000000000e+02,1.238281250000000000e+00
9.127968750000000000e+02,1.226562500000000000e+00
9.140273437500000000e+02,1.230468750000000000e+00
9.152656250000000000e+02,1.238281250000000000e+00
9.165039062500000000e+02,1.238281250000000000e+00
9.177460937500000000e+02,1.242187500000000000e+00
9.189921875000000000e+02,1.246093750000000000e+00
9.202343750000000000e+02,1.242187500000000000e+00
9.214804687500000000e+02,1.246093750000000000e+00
9.227226562500000000e+02,1.242187500000000000e+00
9.239609375000000000e+02,1.238281250000000000e+00
9.252031250000000000e+02,1.242187500000000000e+00
9.264375000000000000e+02,1.234375000000000000e+00
9.276757812500000000e+02,1.238281250000000000e+00
9.289140625000000000e+02,1.238281250000000000e+00
9.301445312500000000e+02,1.230468750000000000e+00
9.313828125000000000e+02,1.238281250000000000e+00
9.326171875000000000e+02,1.234375000000000000e+00
9.338437500000000000e+02,1.226562500000000000e+00
9.350742187500000000e+02,1.230468750000000000e+00
9.362812500000000000e+02,1.207031250000000000e+00
9.374960937500000000e+02,1.214843750000000000e+00
9.387109375000000000e+02,1.214843750000000000e+00
9.399218750000000000e+02,1.210937500000000000e+00
9.411445312500000000e+02,1.222656250000000000e+00
9.423593750000000000e+02,1.214843750000000000e+00
9.435742187500000000e+02,1.214843750000000000e+00
9.447968750000000000e+02,1.222656250000000000e+00
9.460156250000000000e+02,1.218750000000000000e+00
9.472382812500000000e+02,1.222656250000000000e+00
9.484609375000000000e+02,1.222656250000000000e+00
9.496796875000000000e+02,1.218750000000000000e+00
9.508945312500000000e+02,1.214843750000000000e+00
9.521132812500000000e+02,1.218750000000000000e+00
9.530000000000000000e+02,8.867187500000000000e-01
9.533164062500000000e+02,3.164062500000000000e-01
9.538164062500000000e+02,5.000000000000000000e-01
9.545507812500000000e+02,7.343750000000000000e-01
9.557968750000000000e+02,1.246093750000000000e+00
9.570312500000000000e+02,1.234375000000000000e+00
9.582851562500000000e+02,1.253906250000000000e+00
9.595273437500000000e+02,1.242187500000000000e+00
9.607500000000000000e+02,1.222656250000000000e+00
9.619843750000000000e+02,1.234375000000000000e+00
9.632148437500000000e+02,1.230468750000000000e+00
9.644453125000000000e+02,1.230468750000000000e+00
9.656835937500000000e+02,1.238281250000000000e+00
9.669218750000000000e+02,1.238281250000000000e+00
9.681523437500000000e+02,1.230468750000000000e+00
9.693867187500000000e+02,1.234375000000000000e+00
9.706328125000000000e+02,1.246093750000000000e+00
9.718632812500000000e+02,1.230468750000000000e+00
9.730976562500000000e+02,1.234375000000000000e+00
9.735351562500000000e+02,4.375000000000000000e-01
9.739609375000000000e+02,4.257812500000000000e-01
9.743320312500000000e+02,3.710937500000000000e-01
9.755390625000000000e+02,1.207031250000000000e+00
9.765117187500000000e+02,9.726562500000000000e-01
9.777734375000000000e+02,1.261718750000000000e+00
9.789921875000000000e+02,1.218750000000000000e+00
9.802070312500000000e+02,1.214843750000000000e+00
9.814218750000000000e+02,1.214843750000000000e+00
9.826328125000000000e+02,1.210937500000000000e+00
9.838320312500000000e+02,1.199218750000000000e+00
9.850390625000000000e+02,1.207031250000000000e+00
9.862382812500000000e+02,1.199218750000000000e+00
9.873671875000000000e+02,1.128906250000000000e+00
9.886093750000000000e+02,1.242187500000000000e+00
9.897851562500000000e+02,1.175781250000000000e+00
9.908828125000000000e+02,1.097656250000000000e+00
9.921640625000000000e+02,1.281250000000000000e+00
9.933750000000000000e+02,1.210937500000000000e+00
9.945898437500000000e+02,1.214843750000000000e+00
9.958085937500000000e+02,1.218750000000000000e+00
9.970273437500000000e+02,1.218750000000000000e+00
9.982343750000000000e+02,1.207031250000000000e+00
9.994648437500000000e+02,1.230468750000000000e+00
1.000671875000000000e+03,1.207031250000000000e+00
1.001878906250000000e+03,1.207031250000000000e+00
1.003093750000000000e+03,1.214843750000000000e+00
1.004296875000000000e+03,1.203125000000000000e+00
1.005503906250000000e+03,1.207031250000000000e+00
1.006722656250000000e+03,1.218750000000000000e+00
1.007941406250000000e+03,1.218750000000000000e+00
1.009152343750000000e+03,1.210937500000000000e+00
1.010382812500000000e+03,1.230468750000000000e+00
1.011597656250000000e+03,1.214843750000000000e+00
1.012804687500000000e+03,1.207031250000000000e+00
1.014011718750000000e+03,1.207031250000000000e+00
1.015214843750000000e+03,1.203125000000000000e+00
1.016421875000000000e+03,1.207031250000000000e+00
1.017636718750000000e+03,1.214843750000000000e+00
1.018839843750000000e+03,1.203125000000000000e+00
1.020054687500000000e+03,1.214843750000000000e+00
1.021273437500000000e+03,1.218750000000000000e+00
1.022492187500000000e+03,1.218750000000000000e+00
1.023699218750000000e+03,1.207031250000000000e+00
1.024910156250000000e+03,1.210937500000000000e+00
1.026109375000000000e+03,1.199218750000000000e+00
1.027218750000000000e+03,1.109375000000000000e+00
1.028183593750000000e+03,9.648437500000000000e-01
1.029035156250000000e+03,8.515625000000000000e-01
1.030207031250000000e+03,1.171875000000000000e+00
1.031351562500000000e+03,1.144531250000000000e+00
1.032488281250000000e+03,1.136718750000000000e+00
1.033628906250000000e+03,1.140625000000000000e+00
1.034667968750000000e+03,1.039062500000000000e+00
1.035824218750000000e+03,1.156250000000000000e+00
1.037050781250000000e+03,1.226562500000000000e+00
1.038136718750000000e+03,1.085937500000000000e+00
1.039375000000000000e+03,1.238281250000000000e+00
1.040589843750000000e+03,1.214843750000000000e+00
1.041781250000000000e+03,1.191406250000000000e+00
1.042988281250000000e+03,1.207031250000000000e+00
1.044187500000000000e+03,1.199218750000000000e+00
1.045375000000000000e+03,1.187500000000000000e+00
1.046578125000000000e+03,1.203125000000000000e+00
1.047789062500000000e+03,1.210937500000000000e+00
1.049003906250000000e+03,1.214843750000000000e+00
1.050199218750000000e+03,1.195312500000000000e+00
1.051414062500000000e+03,1.214843750000000000e+00
1.052640625000000000e+03,1.226562500000000000e+00
1.053191406250000000e+03,5.507812500000000000e-01
1.053691406250000000e+03,5.000000000000000000e-01
1.054140625000000000e+03,4.492187500000000000e-01
1.055089843750000000e+03,9.492187500000000000e-01
1.056316406250000000e+03,1.226562500000000000e+00
1.057527343750000000e+03,1.210937500000000000e+00
1.058750000000000000e+03,1.222656250000000000e+00
1.059972656250000000e+03,1.222656250000000000e+00
1.061195312500000000e+03,1.222656250000000000e+00
1.062433593750000000e+03,1.238281250000000000e+00
1.063664062500000000e+03,1.230468750000000000e+00
1.064890625000000000e+03,1.226562500000000000e+00
1.066136718750000000e+03,1.246093750000000000e+00
1.067375000000000000e+03,1.238281250000000000e+00
1.068601562500000000e+03,1.226562500000000000e+00
1.069839843750000000e+03,1.238281250000000000e+00
1.071066406250000000e+03,1.226562500000000000e+00
1.072289062500000000e+03,1.222656250000000000e+00
1.073527343750000000e+03,1.238281250000000000e+00
1.074773437500000000e+03,1.246093750000000000e+00
1.076011718750000000e+03,1.238281250000000000e+00
1.077265625000000000e+03,1.253906250000000000e+00
1.078507812500000000e+03,1.242187500000000000e+00
1.079742187500000000e+03,1.234375000000000000e+00
1.080988281250000000e+03,1.246093750000000000e+00
1.082238281250000000e+03,1.250000000000000000e+00
1.083468750000000000e+03,1.230468750000000000e+00
1.084722656250000000e+03,1.253906250000000000e+00
1.085984375000000000e+03,1.261718750000000000e+00
1.087230468750000000e+03,1.246093750000000000e+00
1.088468750000000000e+03,1.238281250000000000e+00
1.089718750000000000e+03,1.250000000000000000e+00
1.090960937500000000e+03,1.242187500000000000e+00
1.092199218750000000e+03,1.238281250000000000e+00
1.093433593750000000e+03,1.234375000000000000e+00
1.094660156250000000e+03,1.226562500000000000e+00
1.095882812500000000e+03,1.222656250000000000e+00
1.097101562500000000e+03,1.218750000000000000e+00
1.098316406250000000e+03,1.214843750000000000e+00
1.099542968750000000e+03,1.226562500000000000e+00
1.100785156250000000e+03,1.242187500000000000e+00
1.102019531250000000e+03,1.234375000000000000e+00
1.103277343750000000e+03,1.257812500000000000e+00
1.104531250000000000e+03,1.253906250000000000e+00
1.105773437500000000e+03,1.242187500000000000e+00
1.107031250000000000e+03,1.257812500000000000e+00
1.108273437500000000e+03,1.242187500000000000e+00
1.109519531250000000e+03,1.246093750000000000e+00
1.110757812500000000e+03,1.238281250000000000e+00
1.111984375000000000e+03,1.226562500000000000e+00
1.113214843750000000e+03,1.230468750000000000e+00
1.114445312500000000e+03,1.230468750000000000e+00
1.115679687500000000e+03,1.234375000000000000e+00
1.116914062500000000e+03,1.234375000000000000e+00
1.118128906250000000e+03,1.214843750000000000e+00
1.119355468750000000e+03,1.226562500000000000e+00
1.120578125000000000e+03,1.222656250000000000e+00
1.121796875000000000e+03,1.218750000000000000e+00
1.123046875000000000e+03,1.250000000000000000e+00
1.124281250000000000e+03,1.234375000000000000e+00
1.125507812500000000e+03,1.226562500000000000e+00
1.126750000000000000e+03,1.242187500000000000e+00
1.127988281250000000e+03,1.238281250000000000e+00
1.129210937500000000e+03,1.222656250000000000e+00
1.130445312500000000e+03,1.234375000000000000e+00
1.131667968750000000e+03,1.222656250000000000e+00
1.132902343750000000e+03,1.234375000000000000e+00
1.134144531250000000e+03,1.242187500000000000e+00
1.135394531250000000e+03,1.250000000000000000e+00
1.136628906250000000e+03,1.234375000000000000e+00
1.137882812500000000e+03,1.253906250000000000e+00
1.139121093750000000e+03,1.238281250000000000e+00
1.140367187500000000e+03,1.246093750000000000e+00
1.141617187500000000e+03,1.250000000000000000e+00
1.142851562500000000e+03,1.234375000000000000e+00
1.144085937500000000e+03,1.234375000000000000e+00
1.145328125000000000e+03,1.242187500000000000e+00
1.146558593750000000e+03,1.230468750000000000e+00
1.147800781250000000e+03,1.242187500000000000e+00
1.149058593750000000e+03,1.257812500000000000e+00
1.150292968750000000e+03,1.234375000000000000e+00
1.151535156250000000e+03,1.242187500000000000e+00
1.152777343750000000e+03,1.242187500000000000e+00
1.154007812500000000e+03,1.230468750000000000e+00
1.155238281250000000e+03,1.230468750000000000e+00
1.156468750000000000e+03,1.230468750000000000e+00
1.157695312500000000e+03,1.226562500000000000e+00
1.158535156250000000e+03,8.398437500000000000e-01
1.159371093750000000e+03,8.359375000000000000e-01
1.160152343750000000e+03,7.812500000000000000e-01
1.161378906250000000e+03,1.226562500000000000e+00
1.162609375000000000e+03,1.230468750000000000e+00
1.163839843750000000e+03,1.230468750000000000e+00
1.165089843750000000e+03,1.250000000000000000e+00
1.166355468750000000e+03,1.265625000000000000e+00
1.167613281250000000e+03,1.257812500000000000e+00
1.168882812500000000e+03,1.269531250000000000e+00
1.170136718750000000e+03,1.253906250000000000e+00
1.171382812500000000e+03,1.246093750000000000e+00
1.172636718750000000e+03,1.253906250000000000e+00
1.173878906250000000e+03,1.242187500000000000e+00
1.175109375000000000e+03,1.230468750000000000e+00
1.176351562500000000e+03,1.242187500000000000e+00
1.177597656250000000e+03,1.246093750000000000e+00
1.178828125000000000e+03,1.230468750000000000e+00
1.180070312500000000e+03,1.242187500000000000e+00
1.181308593750000000e+03,1.238281250000000000e+00
1.182539062500000000e+03,1.230468750000000000e+00
1.183785156250000000e+03,1.246093750000000000e+00
1.185023437500000000e+03,1.238281250000000000e+00
1.186265625000000000e+03,1.242187500000000000e+00
1.187515625000000000e+03,1.250000000000000000e+00
1.188738281250000000e+03,1.222656250000000000e+00
1.189976562500000000e+03,1.238281250000000000e+00
1.191203125000000000e+03,1.226562500000000000e+00
1.192335937500000000e+03,1.132812500000000000e+00
1.193414062500000000e+03,1.078125000000000000e+00
1.194542968750000000e+03,1.128906250000000000e+00
1.195460937500000000e+03,9.179687500000000000e-01
1.196679687500000000e+03,1.218750000000000000e+00
1.197863281250000000e+03,1.183593750000000000e+00
1.199062500000000000e+03,1.199218750000000000e+00
1.200281250000000000e+03,1.218750000000000000e+00
1.201492187500000000e+03,1.210937500000000000e+00
1.202679687500000000e+03,1.187500000000000000e+00
1.203859375000000000e+03,1.179687500000000000e+00
1.205070312500000000e+03,1.210937500000000000e+00
1.206167968750000000e+03,1.097656250000000000e+00
1.207433593750000000e+03,1.265625000000000000e+00
1.208664062500000000e+03,1.230468750000000000e+00
1.209882812500000000e+03,1.218750000000000000e+00
1.211105468750000000e+03,1.222656250000000000e+00
1.212335937500000000e+03,1.230468750000000000e+00
1.213562500000000000e+03,1.226562500000000000e+00
1.214781250000000000e+03,1.218750000000000000e+00
1.216007812500000000e+03,1.226562500000000000e+00
1.217234375000000000e+03,1.226562500000000000e+00
1.218457031250000000e+03,1.222656250000000000e+00
1.219695312500000000e+03,1.238281250000000000e+00
1.220937500000000000e+03,1.242187500000000000e+00
1.222171875000000000e+03,1.234375000000000000e+00
1.223417968750000000e+03,1.246093750000000000e+00
1.224660156250000000e+03,1.242187500000000000e+00
1.225890625000000000e+03,1.230468750000000000e+00
1.227128906250000000e+03,1.238281250000000000e+00
1.228363281250000000e+03,1.234375000000000000e+00
1.229582031250000000e+03,1.218750000000000000e+00
1.230808593750000000e+03,1.226562500000000000e+00
1.232035156250000000e+03,1.226562500000000000e+00
1.233246093750000000e+03,1.210937500000000000e+00
1.234468750000000000e+03,1.222656250000000000e+00
1.235695312500000000e+03,1.226562500000000000e+00
1.236917968750000000e+03,1.222656250000000000e+00
1.238140625000000000e+03,1.222656250000000000e+00
1.239375000000000000e+03,1.234375000000000000e+00
1.240605468750000000e+03,1.230468750000000000e+00
1.241824218750000000e+03,1.218750000000000000e+00
1.243054687500000000e+03,1.230468750000000000e+00
1.244277343750000000e+03,1.222656250000000000e+00
1.245492187500000000e+03,1.214843750000000000e+00
1.246726562500000000e+03,1.234375000000000000e+00
1.247953125000000000e+03,1.226562500000000000e+00
1.248812500000000000e+03,8.593750000000000000e-01
1.249167968750000000e+03,3.554687500000000000e-01
1.250394531250000000e+03,1.226562500000000000e+00
1.251605468750000000e+03,1.210937500000000000e+00
1.252664062500000000e+03,1.058593750000000000e+00
1.253925781250000000e+03,1.261718750000000000e+00
1.255136718750000000e+03,1.210937500000000000e+00
1.256246093750000000e+03,1.109375000000000000e+00
1.257503906250000000e+03,1.257812500000000000e+00
1.258667968750000000e+03,1.164062500000000000e+00
1.259929687500000000e+03,1.261718750000000000e+00
1.261199218750000000e+03,1.269531250000000000e+00
1.262417968750000000e+03,1.218750000000000000e+00
1.263652343750000000e+03,1.234375000000000000e+00
1.264878906250000000e+03,1.226562500000000000e+00
1.266101562500000000e+03,1.222656250000000000e+00
1.267343750000000000e+03,1.242187500000000000e+00
1.268578125000000000e+03,1.234375000000000000e+00
1.269808593750000000e+03,1.230468750000000000e+00
1.271046875000000000e+03,1.238281250000000000e+00
1.272285156250000000e+03,1.238281250000000000e+00
1.273500000000000000e+03,1.214843750000000000e+00
1.274718750000000000e+03,1.218750000000000000e+00
1.275937500000000000e+03,1.218750000000000000e+00
1.277160156250000000e+03,1.222656250000000000e+00
1.278394531250000000e+03,1.234375000000000000e+00
1.279636718750000000e+03,1.242187500000000000e+00
1.280871093750000000e+03,1.234375000000000000e+00
1.282113281250000000e+03,1.242187500000000000e+00
1.283359375000000000e+03,1.246093750000000000e+00
1.284593750000000000e+03,1.234375000000000000e+00
1.285820312500000000e+03,1.226562500000000000e+00
1.287042968750000000e+03,1.222656250000000000e+00
1.288257812500000000e+03,1.214843750000000000e+00
1.289484375000000000e+03,1.226562500000000000e+00
1.290707031250000000e+03,1.222656250000000000e+00
1.291851562500000000e+03,1.144531250000000000e+00
1.293128906250000000e+03,1.277343750000000000e+00
1.294375000000000000e+03,1.246093750000000000e+00
1.295605468750000000e+03,1.230468750000000000e+00
1.296855468750000000e+03,1.250000000000000000e+00
1.298093750000000000e+03,1.238281250000000000e+00
1.299339843750000000e+03,1.246093750000000000e+00
1.300582031250000000e+03,1.242187500000000000e+00
1.301808593750000000e+03,1.226562500000000000e+00
1.303035156250000000e+03,1.226562500000000000e+00
1.304261718750000000e+03,1.226562500000000000e+00
1.305437500000000000e+03,1.175781250000000000e+00
1.306613281250000000e+03,1.175781250000000000e+00
1.307878906250000000e+03,1.265625000000000000e+00
1.309035156250000000e+03,1.156250000000000000e+00
1.310300781250000000e+03,1.265625000000000000e+00
1.311566406250000000e+03,1.265625000000000000e+00
1.312777343750000000e+03,1.210937500000000000e+00
1.314031250000000000e+03,1.253906250000000000e+00
1.315273437500000000e+03,1.242187500000000000e+00
1.316464843750000000e+03,1.191406250000000000e+00
1.317695312500000000e+03,1.230468750000000000e+00
1.318839843750000000e+03,1.144531250000000000e+00
1.319949218750000000e+03,1.109375000000000000e+00
1.321226562500000000e+03,1.277343750000000000e+00
1.322453125000000000e+03,1.226562500000000000e+00
1.323679687500000000e+03,1.226562500000000000e+00
1.324917968750000000e+03,1.238281250000000000e+00
1.326144531250000000e+03,1.226562500000000000e+00
1.327363281250000000e+03,1.218750000000000000e+00
1.328593750000000000e+03,1.230468750000000000e+00
1.329824218750000000e+03,1.230468750000000000e+00
1.331046875000000000e+03,1.222656250000000000e+00
1.332296875000000000e+03,1.250000000000000000e+00
1.333535156250000000e+03,1.238281250000000000e+00
1.334765625000000000e+03,1.230468750000000000e+00
1.336007812500000000e+03,1.242187500000000000e+00
1.337253906250000000e+03,1.246093750000000000e+00
1.338472656250000000e+03,1.218750000000000000e+00
1.339691406250000000e+03,1.218750000000000000e+00
1.340921875000000000e+03,1.230468750000000000e+00
1.342089843750000000e+03,1.167968750000000000e+00
1.343363281250000000e+03,1.273437500000000000e+00
1.344597656250000000e+03,1.234375000000000000e+00
1.345820312500000000e+03,1.222656250000000000e+00
1.347054687500000000e+03,1.234375000000000000e+00
1.348289062500000000e+03,1.234375000000000000e+00
1.349511718750000000e+03,1.222656250000000000e+00
1.350746093750000000e+03,1.234375000000000000e+00
1.351972656250000000e+03,1.226562500000000000e+00
1.353175781250000000e+03,1.203125000000000000e+00
1.354398437500000000e+03,1.222656250000000000e+00
1.355648437500000000e+03,1.250000000000000000e+00
1.356773437500000000e+03,1.125000000000000000e+00
1.358070312500000000e+03,1.296875000000000000e+00
1.359335937500000000e+03,1.265625000000000000e+00
1.360589843750000000e+03,1.253906250000000000e+00
1.361863281250000000e+03,1.273437500000000000e+00
1.363152343750000000e+03,1.289062500000000000e+00
1.364414062500000000e+03,1.261718750000000000e+00
1.365679687500000000e+03,1.265625000000000000e+00
1.366941406250000000e+03,1.261718750000000000e+00
1.368187500000000000e+03,1.246093750000000000e+00
1.369437500000000000e+03,1.250000000000000000e+00
1.370683593750000000e+03,1.246093750000000000e+00
1.371917968750000000e+03,1.234375000000000000e+00
1.373156250000000000e+03,1.238281250000000000e+00
1.374410156250000000e+03,1.253906250000000000e+00
1.375644531250000000e+03,1.234375000000000000e+00
1.376867187500000000e+03,1.222656250000000000e+00
1.378121093750000000e+03,1.253906250000000000e+00
1.379355468750000000e+03,1.234375000000000000e+00
1.380593750000000000e+03,1.238281250000000000e+00
1.381753906250000000e+03,1.160156250000000000e+00
1.382753906250000000e+03,1.000000000000000000e+00
1.383644531250000000e+03,8.906250000000000000e-01
1.384472656250000000e+03,8.281250000000000000e-01
1.385628906250000000e+03,1.156250000000000000e+00
1.386511718750000000e+03,8.828125000000000000e-01
1.387308593750000000e+03,7.968750000000000000e-01
1.388230468750000000e+03,9.218750000000000000e-01
1.389218750000000000e+03,9.882812500000000000e-01
1.390273437500000000e+03,1.054687500000000000e+00
1.391304687500000000e+03,1.031250000000000000e+00
1.392281250000000000e+03,9.765625000000000000e-01
1.393171875000000000e+03,8.906250000000000000e-01
1.393992187500000000e+03,8.203125000000000000e-01
1.394773437500000000e+03,7.812500000000000000e-01
1.395734375000000000e+03,9.609375000000000000e-01
1.396699218750000000e+03,9.648437500000000000e-01
1.397585937500000000e+03,8.867187500000000000e-01
1.398558593750000000e+03,9.726562500000000000e-01
1.399566406250000000e+03,1.007812500000000000e+00
1.400558593750000000e+03,9.921875000000000000e-01
1.401484375000000000e+03,9.257812500000000000e-01
1.402492187500000000e+03,1.007812500000000000e+00
1.403644531250000000e+03,1.152343750000000000e+00
1.404722656250000000e+03,1.078125000000000000e+00
1.405839843750000000e+03,1.117187500000000000e+00
1.406953125000000000e+03,1.113281250000000000e+00
1.407968750000000000e+03,1.015625000000000000e+00
1.409089843750000000e+03,1.121093750000000000e+00
1.410195312500000000e+03,1.105468750000000000e+00
1.411210937500000000e+03,1.015625000000000000e+00
1.412304687500000000e+03,1.093750000000000000e+00
1.413437500000000000e+03,1.132812500000000000e+00
1.414652343750000000e+03,1.214843750000000000e+00
1.415851562500000000e+03,1.199218750000000000e+00
1.417062500000000000e+03,1.210937500000000000e+00
1.418160156250000000e+03,1.097656250000000000e+00
1.419378906250000000e+03,1.218750000000000000e+00
1.420667968750000000e+03,1.289062500000000000e+00
1.421832031250000000e+03,1.164062500000000000e+00
1.423019531250000000e+03,1.187500000000000000e+00
1.424335937500000000e+03,1.316406250000000000e+00
1.425582031250000000e+03,1.246093750000000000e+00
1.426847656250000000e+03,1.265625000000000000e+00
1.428117187500000000e+03,1.269531250000000000e+00
1.429367187500000000e+03,1.250000000000000000e+00
1.430628906250000000e+03,1.261718750000000000e+00
1.431867187500000000e+03,1.238281250000000000e+00
1.433105468750000000e+03,1.238281250000000000e+00
1.434371093750000000e+03,1.265625000000000000e+00
1.435511718750000000e+03,1.140625000000000000e+00
1.436691406250000000e+03,1.179687500000000000e+00
1.437917968750000000e+03,1.226562500000000000e+00
1.439304687500000000e+03,1.386718750000000000e+00
1.439648437500000000e+03,3.437500000000000000e-01
1.440000000000000000e+03,3.515625000000000000e-01
1.440355468750000000e+03,3.554687500000000000e-01
1.440707031250000000e+03,3.515625000000000000e-01
1.441027343750000000e+03,3.203125000000000000e-01
1.441843750000000000e+03,8.164062500000000000e-01
1.443187500000000000e+03,1.343750000000000000e+00
1.444464843750000000e+03,1.277343750000000000e+00
1.445664062500000000e+03,1.199218750000000000e+00
1.446613281250000000e+03,9.492187500000000000e-01
1.447847656250000000e+03,1.234375000000000000e+00
1.449054687500000000e+03,1.207031250000000000e+00
1.450273437500000000e+03,1.218750000000000000e+00
1.451523437500000000e+03,1.250000000000000000e+00
1.452781250000000000e+03,1.257812500000000000e+00
1.454050781250000000e+03,1.269531250000000000e+00
1.455328125000000000e+03,1.277343750000000000e+00
1.456597656250000000e+03,1.269531250000000000e+00
1.457886718750000000e+03,1.289062500000000000e+00
1.459179687500000000e+03,1.292968750000000000e+00
1.460460937500000000e+03,1.281250000000000000e+00
1.461761718750000000e+03,1.300781250000000000e+00
1.463082031250000000e+03,1.320312500000000000e+00
1.464417968750000000e+03,1.335937500000000000e+00
1.465761718750000000e+03,1.343750000000000000e+00
1.467070312500000000e+03,1.308593750000000000e+00
1.468375000000000000e+03,1.304687500000000000e+00
1.469664062500000000e+03,1.289062500000000000e+00
1.470945312500000000e+03,1.281250000000000000e+00
1.472226562500000000e+03,1.281250000000000000e+00
1.473488281250000000e+03,1.261718750000000000e+00
1.474750000000000000e+03,1.261718750000000000e+00
1.476019531250000000e+03,1.269531250000000000e+00
1.477285156250000000e+03,1.265625000000000000e+00
1.478566406250000000e+03,1.281250000000000000e+00
1.479859375000000000e+03,1.292968750000000000e+00
1.481132812500000000e+03,1.273437500000000000e+00
1.482414062500000000e+03,1.281250000000000000e+00
1.483675781250000000e+03,1.261718750000000000e+00
1.484949218750000000e+03,1.273437500000000000e+00
1.486207031250000000e+03,1.257812500000000000e+00
1.487476562500000000e+03,1.269531250000000000e+00
1.488730468750000000e+03,1.253906250000000000e+00
1.489992187500000000e+03,1.261718750000000000e+00
1.491265625000000000e+03,1.273437500000000000e+00
1.492535156250000000e+03,1.269531250000000000e+00
1.493796875000000000e+03,1.261718750000000000e+00
1.495058593750000000e+03,1.261718750000000000e+00
1.496308593750000000e+03,1.250000000000000000e+00
1.497585937500000000e+03,1.277343750000000000e+00
1.498851562500000000e+03,1.265625000000000000e+00
1.500117187500000000e+03,1.265625000000000000e+00
1.501382812500000000e+03,1.265625000000000000e+00
1.502628906250000000e+03,1.246093750000000000e+00
1.503851562500000000e+03,1.222656250000000000e+00
1.504828125000000000e+03,9.765625000000000000e-01
1.505695312500000000e+03,8.671875000000000000e-01
1.506902343750000000e+03,1.207031250000000000e+00
1.508093750000000000e+03,1.191406250000000000e+00
1.509320312500000000e+03,1.226562500000000000e+00
1.510554687500000000e+03,1.234375000000000000e+00
1.511792968750000000e+03,1.238281250000000000e+00
1.513042968750000000e+03,1.250000000000000000e+00
1.514277343750000000e+03,1.234375000000000000e+00
1.515507812500000000e+03,1.230468750000000000e+00
1.516757812500000000e+03,1.250000000000000000e+00
1.517972656250000000e+03,1.214843750000000000e+00
1.519230468750000000e+03,1.257812500000000000e+00
1.520500000000000000e+03,1.269531250000000000e+00
1.521753906250000000e+03,1.253906250000000000e+00
1.523019531250000000e+03,1.265625000000000000e+00
1.524273437500000000e+03,1.253906250000000000e+00
1.525531250000000000e+03,1.257812500000000000e+00
1.526789062500000000e+03,1.257812500000000000e+00
1.528039062500000000e+03,1.250000000000000000e+00
1.529289062500000000e+03,1.250000000000000000e+00
1.530554687500000000e+03,1.265625000000000000e+00
1.531816406250000000e+03,1.261718750000000000e+00
1.533070312500000000e+03,1.253906250000000000e+00
1.534339843750000000e+03,1.269531250000000000e+00
1.535589843750000000e+03,1.250000000000000000e+00
1.536839843750000000e+03,1.250000000000000000e+00
1.538089843750000000e+03,1.250000000000000000e+00
1.539328125000000000e+03,1.238281250000000000e+00
1.540566406250000000e+03,1.238281250000000000e+00
1.541808593750000000e+03,1.242187500000000000e+00
1.543046875000000000e+03,1.238281250000000000e+00
1.544304687500000000e+03,1.257812500000000000e+00
1.545539062500000000e+03,1.234375000000000000e+00
1.546777343750000000e+03,1.238281250000000000e+00
1.548027343750000000e+03,1.250000000000000000e+00
1.549257812500000000e+03,1.230468750000000000e+00
1.550496093750000000e+03,1.238281250000000000e+00
1.551726562500000000e+03,1.230468750000000000e+00
1.552953125000000000e+03,1.226562500000000000e+00
1.554183593750000000e+03,1.230468750000000000e+00
1.555417968750000000e+03,1.234375000000000000e+00
1.556660156250000000e+03,1.242187500000000000e+00
1.557917968750000000e+03,1.257812500000000000e+00
1.559171875000000000e+03,1.253906250000000000e+00
1.560417968750000000e+03,1.246093750000000000e+00
1.561664062500000000e+03,1.246093750000000000e+00
1.562898437500000000e+03,1.234375000000000000e+00
1.564167968750000000e+03,1.269531250000000000e+00
1.565417968750000000e+03,1.250000000000000000e+00
1.566625000000000000e+03,1.207031250000000000e+00
1.567902343750000000e+03,1.277343750000000000e+00
1.569210937500000000e+03,1.308593750000000000e+00
1.569777343750000000e+03,5.664062500000000000e-01
1.570468750000000000e+03,6.914062500000000000e-01
1.571742187500000000e+03,1.273437500000000000e+00
1.573023437500000000e+03,1.281250000000000000e+00
1.574300781250000000e+03,1.277343750000000000e+00
1.575562500000000000e+03,1.261718750000000000e+00
1.576820312500000000e+03,1.257812500000000000e+00
1.577617187500000000e+03,7.968750000000000000e-01
1.578082031250000000e+03,4.648437500000000000e-01
1.579347656250000000e+03,1.265625000000000000e+00
1.580605468750000000e+03,1.257812500000000000e+00
1.581859375000000000e+03,1.253906250000000000e+00
1.583035156250000000e+03,1.175781250000000000e+00
1.584183593750000000e+03,1.148437500000000000e+00
1.585062500000000000e+03,8.789062500000000000e-01
1.586281250000000000e+03,1.218750000000000000e+00
1.587472656250000000e+03,1.191406250000000000e+00
1.588683593750000000e+03,1.210937500000000000e+00
1.589914062500000000e+03,1.230468750000000000e+00
1.591148437500000000e+03,1.234375000000000000e+00
1.592371093750000000e+03,1.222656250000000000e+00
1.593605468750000000e+03,1.234375000000000000e+00
1.594847656250000000e+03,1.242187500000000000e+00
1.596082031250000000e+03,1.234375000000000000e+00
1.597289062500000000e+03,1.207031250000000000e+00
1.598558593750000000e+03,1.269531250000000000e+00
1.599808593750000000e+03,1.250000000000000000e+00
1.601046875000000000e+03,1.238281250000000000e+00
1.602292968750000000e+03,1.246093750000000000e+00
1.603535156250000000e+03,1.242187500000000000e+00
1.604753906250000000e+03,1.218750000000000000e+00
1.605996093750000000e+03,1.242187500000000000e+00
1.607226562500000000e+03,1.230468750000000000e+00
1.608445312500000000e+03,1.218750000000000000e+00
1.609687500000000000e+03,1.242187500000000000e+00
1.610914062500000000e+03,1.226562500000000000e+00
1.612132812500000000e+03,1.218750000000000000e+00
1.613363281250000000e+03,1.230468750000000000e+00
1.614597656250000000e+03,1.234375000000000000e+00
1.615816406250000000e+03,1.218750000000000000e+00
1.617062500000000000e+03,1.246093750000000000e+00
1.618300781250000000e+03,1.238281250000000000e+00
1.619531250000000000e+03,1.230468750000000000e+00
1.620773437500000000e+03,1.242187500000000000e+00
1.622007812500000000e+03,1.234375000000000000e+00
1.623238281250000000e+03,1.230468750000000000e+00
1.624476562500000000e+03,1.238281250000000000e+00
1.625707031250000000e+03,1.230468750000000000e+00
1.626902343750000000e+03,1.195312500000000000e+00
1.628179687500000000e+03,1.277343750000000000e+00
1.629417968750000000e+03,1.238281250000000000e+00
1.630648437500000000e+03,1.230468750000000000e+00
1.631890625000000000e+03,1.242187500000000000e+00
1.633117187500000000e+03,1.226562500000000000e+00
1.634347656250000000e+03,1.230468750000000000e+00
1.635585937500000000e+03,1.238281250000000000e+00
1.636804687500000000e+03,1.218750000000000000e+00
1.638031250000000000e+03,1.226562500000000000e+00
1.639261718750000000e+03,1.230468750000000000e+00
1.640480468750000000e+03,1.218750000000000000e+00
1.641714843750000000e+03,1.234375000000000000e+00
1.642949218750000000e+03,1.234375000000000000e+00
1.644179687500000000e+03,1.230468750000000000e+00
1.645417968750000000e+03,1.238281250000000000e+00
1.646660156250000000e+03,1.242187500000000000e+00
1.647898437500000000e+03,1.238281250000000000e+00
1.649109375000000000e+03,1.210937500000000000e+00
1.650156250000000000e+03,1.046875000000000000e+00
1.651425781250000000e+03,1.269531250000000000e+00
1.652613281250000000e+03,1.187500000000000000e+00
1.653792968750000000e+03,1.179687500000000000e+00
1.655035156250000000e+03,1.242187500000000000e+00
1.655937500000000000e+03,9.023437500000000000e-01
1.657144531250000000e+03,1.207031250000000000e+00
1.658292968750000000e+03,1.148437500000000000e+00
1.659558593750000000e+03,1.265625000000000000e+00
1.660703125000000000e+03,1.144531250000000000e+00
1.661859375000000000e+03,1.156250000000000000e+00
1.663093750000000000e+03,1.234375000000000000e+00
1.664226562500000000e+03,1.132812500000000000e+00
1.665425781250000000e+03,1.199218750000000000e+00
1.666648437500000000e+03,1.222656250000000000e+00
1.667781250000000000e+03,1.132812500000000000e+00
1.669019531250000000e+03,1.238281250000000000e+00
1.670269531250000000e+03,1.250000000000000000e+00
1.671375000000000000e+03,1.105468750000000000e+00
1.672269531250000000e+03,8.945312500000000000e-01
1.672585937500000000e+03,3.164062500000000000e-01
1.673085937500000000e+03,5.000000000000000000e-01
1.675960937500000000e+03,1.210937500000000000e+00
1.677187500000000000e+03,1.226562500000000000e+00
1.678398437500000000e+03,1.210937500000000000e+00
1.679476562500000000e+03,1.078125000000000000e+00
1.680761718750000000e+03,1.285156250000000000e+00
1.681972656250000000e+03,1.210937500000000000e+00
1.683160156250000000e+03,1.187500000000000000e+00
1.684359375000000000e+03,1.199218750000000000e+00
1.685523437500000000e+03,1.164062500000000000e+00
1.686558593750000000e+03,1.035156250000000000e+00
1.687441406250000000e+03,8.828125000000000000e-01
1.688304687500000000e+03,8.632812500000000000e-01
1.689531250000000000e+03,1.226562500000000000e+00
1.690738281250000000e+03,1.207031250000000000e+00
1.691953125000000000e+03,1.214843750000000000e+00
1.693164062500000000e+03,1.210937500000000000e+00
1.694394531250000000e+03,1.230468750000000000e+00
1.695605468750000000e+03,1.210937500000000000e+00
1.696820312500000000e+03,1.214843750000000000e+00
1.697957031250000000e+03,1.136718750000000000e+00
1.699019531250000000e+03,1.062500000000000000e+00
1.700035156250000000e+03,1.015625000000000000e+00
1.701160156250000000e+03,1.125000000000000000e+00
1.702285156250000000e+03,1.125000000000000000e+00
1.703335937500000000e+03,1.050781250000000000e+00
1.704527343750000000e+03,1.191406250000000000e+00
1.705691406250000000e+03,1.164062500000000000e+00
1.706882812500000000e+03,1.191406250000000000e+00
1.708113281250000000e+03,1.230468750000000000e+00
1.709265625000000000e+03,1.152343750000000000e+00
1.710519531250000000e+03,1.253906250000000000e+00
1.711699218750000000e+03,1.179687500000000000e+00
1.712894531250000000e+03,1.195312500000000000e+00
1.714140625000000000e+03,1.246093750000000000e+00
1.715257812500000000e+03,1.117187500000000000e+00
1.716515625000000000e+03,1.257812500000000000e+00
1.717750000000000000e+03,1.234375000000000000e+00
1.718867187500000000e+03,1.117187500000000000e+00
1.720121093750000000e+03,1.253906250000000000e+00
1.721292968750000000e+03,1.171875000000000000e+00
1.722570312500000000e+03,1.277343750000000000e+00
1.723816406250000000e+03,1.246093750000000000e+00
1.724929687500000000e+03,1.113281250000000000e+00
1.726136718750000000e+03,1.207031250000000000e+00
1.727292968750000000e+03,1.156250000000000000e+00
1.728562500000000000e+03,1.269531250000000000e+00
1.729820312500000000e+03,1.257812500000000000e+00
1.731027343750000000e+03,1.207031250000000000e+00
1.732218750000000000e+03,1.191406250000000000e+00
1.733445312500000000e+03,1.226562500000000000e+00
1.734386718750000000e+03,9.414062500000000000e-01
1.735371093750000000e+03,9.843750000000000000e-01
1.736625000000000000e+03,1.253906250000000000e+00
1.737828125000000000e+03,1.203125000000000000e+00
1.739046875000000000e+03,1.218750000000000000e+00
1.740257812500000000e+03,1.210937500000000000e+00
1.741464843750000000e+03,1.207031250000000000e+00
1.742667968750000000e+03,1.203125000000000000e+00
1.743746093750000000e+03,1.078125000000000000e+00
1.744875000000000000e+03,1.128906250000000000e+00
1.746054687500000000e+03,1.179687500000000000e+00
1.747089843750000000e+03,1.035156250000000000e+00
1.748394531250000000e+03,1.304687500000000000e+00
1.749640625000000000e+03,1.246093750000000000e+00
1.750878906250000000e+03,1.238281250000000000e+00
1.752113281250000000e+03,1.234375000000000000e+00
1.753332031250000000e+03,1.218750000000000000e+00
1.754562500000000000e+03,1.230468750000000000e+00
1.755625000000000000e+03,1.062500000000000000e+00
1.756781250000000000e+03,1.156250000000000000e+00
1.757949218750000000e+03,1.167968750000000000e+00
1.758929687500000000e+03,9.804687500000000000e-01
1.760113281250000000e+03,1.183593750000000000e+00
1.761265625000000000e+03,1.152343750000000000e+00
1.762390625000000000e+03,1.125000000000000000e+00
1.763609375000000000e+03,1.218750000000000000e+00
1.764726562500000000e+03,1.117187500000000000e+00
1.765863281250000000e+03,1.136718750000000000e+00
1.767082031250000000e+03,1.218750000000000000e+00
1.768097656250000000e+03,1.015625000000000000e+00
1.769121093750000000e+03,1.023437500000000000e+00
1.770253906250000000e+03,1.132812500000000000e+00
1.771316406250000000e+03,1.062500000000000000e+00
1.772648437500000000e+03,1.332031250000000000e+00
1.773925781250000000e+03,1.277343750000000000e+00
1.775175781250000000e+03,1.250000000000000000e+00
1.776417968750000000e+03,1.242187500000000000e+00
1.777640625000000000e+03,1.222656250000000000e+00
1.778828125000000000e+03,1.187500000000000000e+00
1.779925781250000000e+03,1.097656250000000000e+00
1.781105468750000000e+03,1.179687500000000000e+00
1.782171875000000000e+03,1.066406250000000000e+00
1.783199218750000000e+03,1.027343750000000000e+00
1.784191406250000000e+03,9.921875000000000000e-01
1.785390625000000000e+03,1.199218750000000000e+00
1.786445312500000000e+03,1.054687500000000000e+00
1.787535156250000000e+03,1.089843750000000000e+00
1.788570312500000000e+03,1.035156250000000000e+00
1.789511718750000000e+03,9.414062500000000000e-01
1.790476562500000000e+03,9.648437500000000000e-01
1.791550781250000000e+03,1.074218750000000000e+00
1.792535156250000000e+03,9.843750000000000000e-01
1.793562500000000000e+03,1.027343750000000000e+00
1.794621093750000000e+03,1.058593750000000000e+00
1.795582031250000000e+03,9.609375000000000000e-01
1.796500000000000000e+03,9.179687500000000000e-01
1.797421875000000000e+03,9.218750000000000000e-01
1.798300781250000000e+03,8.789062500000000000e-01
1.799109375000000000e+03,8.085937500000000000e-01
1.799925781250000000e+03,8.164062500000000000e-01
1.800765625000000000e+03,8.398437500000000000e-01
1.801664062500000000e+03,8.984375000000000000e-01
1.802539062500000000e+03,8.750000000000000000e-01
1.803531250000000000e+03,9.921875000000000000e-01
1.804503906250000000e+03,9.726562500000000000e-01
1.805488281250000000e+03,9.843750000000000000e-01
1.806566406250000000e+03,1.078125000000000000e+00
1.807539062500000000e+03,9.726562500000000000e-01
1.808425781250000000e+03,8.867187500000000000e-01
1.809437500000000000e+03,1.011718750000000000e+00
1.810410156250000000e+03,9.726562500000000000e-01
1.811300781250000000e+03,8.906250000000000000e-01
1.812304687500000000e+03,1.003906250000000000e+00
1.813296875000000000e+03,9.921875000000000000e-01
1.814171875000000000e+03,8.750000000000000000e-01
1.814992187500000000e+03,8.203125000000000000e-01
1.815781250000000000e+03,7.890625000000000000e-01
1.816566406250000000e+03,7.851562500000000000e-01
1.817144531250000000e+03,5.781250000000000000e-01
1.817660156250000000e+03,5.156250000000000000e-01
1.820558593750000000e+03,1.097656250000000000e+00
1.821671875000000000e+03,1.113281250000000000e+00
1.822703125000000000e+03,1.031250000000000000e+00
1.823769531250000000e+03,1.066406250000000000e+00
1.824832031250000000e+03,1.062500000000000000e+00
1.825753906250000000e+03,9.218750000000000000e-01
1.826800781250000000e+03,1.046875000000000000e+00
1.827929687500000000e+03,1.128906250000000000e+00
1.829027343750000000e+03,1.097656250000000000e+00
1.830039062500000000e+03,1.011718750000000000e+00
1.831160156250000000e+03,1.121093750000000000e+00
1.832250000000000000e+03,1.089843750000000000e+00
1.833531250000000000e+03,1.281250000000000000e+00
1.834773437500000000e+03,1.242187500000000000e+00
1.835929687500000000e+03,1.156250000000000000e+00
1.836890625000000000e+03,9.609375000000000000e-01
1.837808593750000000e+03,9.179687500000000000e-01
1.839042968750000000e+03,1.234375000000000000e+00
1.840167968750000000e+03,1.125000000000000000e+00
1.841339843750000000e+03,1.171875000000000000e+00
1.841820312500000000e+03,4.804687500000000000e-01
1.842351562500000000e+03,5.312500000000000000e-01
1.842761718750000000e+03,4.101562500000000000e-01
1.843648437500000000e+03,8.867187500000000000e-01
1.844906250000000000e+03,1.257812500000000000e+00
1.846070312500000000e+03,1.164062500000000000e+00
1.847261718750000000e+03,1.191406250000000000e+00
1.848484375000000000e+03,1.222656250000000000e+00
1.849656250000000000e+03,1.171875000000000000e+00
1.850964843750000000e+03,1.308593750000000000e+00
1.852265625000000000e+03,1.300781250000000000e+00
1.853515625000000000e+03,1.250000000000000000e+00
1.854890625000000000e+03,1.375000000000000000e+00
1.856179687500000000e+03,1.289062500000000000e+00
1.857507812500000000e+03,1.328125000000000000e+00
1.858804687500000000e+03,1.296875000000000000e+00
1.860078125000000000e+03,1.273437500000000000e+00
1.861433593750000000e+03,1.355468750000000000e+00
1.862644531250000000e+03,1.210937500000000000e+00
1.863929687500000000e+03,1.285156250000000000e+00
1.865218750000000000e+03,1.289062500000000000e+00
1.866476562500000000e+03,1.257812500000000000e+00
1.867812500000000000e+03,1.335937500000000000e+00
1.868976562500000000e+03,1.164062500000000000e+00
1.870238281250000000e+03,1.261718750000000000e+00
1.871289062500000000e+03,1.050781250000000000e+00
1.872597656250000000e+03,1.308593750000000000e+00
1.873855468750000000e+03,1.257812500000000000e+00
1.875136718750000000e+03,1.281250000000000000e+00
1.876308593750000000e+03,1.171875000000000000e+00
1.877500000000000000e+03,1.191406250000000000e+00
1.878832031250000000e+03,1.332031250000000000e+00
1.879988281250000000e+03,1.156250000000000000e+00
1.881351562500000000e+03,1.363281250000000000e+00
1.882671875000000000e+03,1.320312500000000000e+00
1.884031250000000000e+03,1.359375000000000000e+00
1.885375000000000000e+03,1.343750000000000000e+00
1.886738281250000000e+03,1.363281250000000000e+00
1.888085937500000000e+03,1.347656250000000000e+00
1.889417968750000000e+03,1.332031250000000000e+00
1.890773437500000000e+03,1.355468750000000000e+00
1.892121093750000000e+03,1.347656250000000000e+00
1.893472656250000000e+03,1.351562500000000000e+00
1.894800781250000000e+03,1.328125000000000000e+00
1.896175781250000000e+03,1.375000000000000000e+00
1.897480468750000000e+03,1.304687500000000000e+00
1.898808593750000000e+03,1.328125000000000000e+00
1.900082031250000000e+03,1.273437500000000000e+00
1.901089843750000000e+03,1.007812500000000000e+00
1.902085937500000000e+03,9.960937500000000000e-01
1.903121093750000000e+03,1.035156250000000000e+00
