# timestamp,IBI
3.406250000000000000e+00 8.593750000000000000e-01
4.390625000000000000e+00 9.843750000000000000e-01
5.390625000000000000e+00 1.000000000000000000e+00
6.343750000000000000e+00 9.531250000000000000e-01
7.234375000000000000e+00 8.906250000000000000e-01
8.125000000000000000e+00 8.906250000000000000e-01
8.921875000000000000e+00 7.968750000000000000e-01
9.796875000000000000e+00 8.750000000000000000e-01
1.065625000000000000e+01 8.593750000000000000e-01
1.139062500000000000e+01 7.343750000000000000e-01
1.217187500000000000e+01 7.812500000000000000e-01
1.301562500000000000e+01 8.437500000000000000e-01
1.384375000000000000e+01 8.281250000000000000e-01
1.473437500000000000e+01 8.906250000000000000e-01
1.560937500000000000e+01 8.750000000000000000e-01
1.650000000000000000e+01 8.906250000000000000e-01
1.742187500000000000e+01 9.218750000000000000e-01
1.828125000000000000e+01 8.593750000000000000e-01
1.915625000000000000e+01 8.750000000000000000e-01
2.003125000000000000e+01 8.750000000000000000e-01
2.085937500000000000e+01 8.281250000000000000e-01
2.178125000000000000e+01 9.218750000000000000e-01
2.265625000000000000e+01 8.750000000000000000e-01
2.356250000000000000e+01 9.062500000000000000e-01
2.443750000000000000e+01 8.750000000000000000e-01
2.532812500000000000e+01 8.906250000000000000e-01
2.623437500000000000e+01 9.062500000000000000e-01
2.710937500000000000e+01 8.750000000000000000e-01
2.800000000000000000e+01 8.906250000000000000e-01
2.892187500000000000e+01 9.218750000000000000e-01
2.979687500000000000e+01 8.750000000000000000e-01
3.070312500000000000e+01 9.062500000000000000e-01
3.156250000000000000e+01 8.593750000000000000e-01
3.246875000000000000e+01 9.062500000000000000e-01
3.335937500000000000e+01 8.906250000000000000e-01
3.423437500000000000e+01 8.750000000000000000e-01
3.514062500000000000e+01 9.062500000000000000e-01
3.600000000000000000e+01 8.593750000000000000e-01
3.692187500000000000e+01 9.218750000000000000e-01
3.785937500000000000e+01 9.375000000000000000e-01
3.875000000000000000e+01 8.906250000000000000e-01
3.971875000000000000e+01 9.687500000000000000e-01
4.065625000000000000e+01 9.375000000000000000e-01
4.160937500000000000e+01 9.531250000000000000e-01
4.250000000000000000e+01 8.906250000000000000e-01
4.346875000000000000e+01 9.687500000000000000e-01
4.443750000000000000e+01 9.687500000000000000e-01
4.535937500000000000e+01 9.218750000000000000e-01
4.634375000000000000e+01 9.843750000000000000e-01
4.732812500000000000e+01 9.843750000000000000e-01
4.825000000000000000e+01 9.218750000000000000e-01
4.920312500000000000e+01 9.531250000000000000e-01
5.012500000000000000e+01 9.218750000000000000e-01
5.103125000000000000e+01 9.062500000000000000e-01
5.192187500000000000e+01 8.906250000000000000e-01
5.275000000000000000e+01 8.281250000000000000e-01
5.359375000000000000e+01 8.437500000000000000e-01
5.446875000000000000e+01 8.750000000000000000e-01
5.532812500000000000e+01 8.593750000000000000e-01
5.625000000000000000e+01 9.218750000000000000e-01
5.720312500000000000e+01 9.531250000000000000e-01
5.815625000000000000e+01 9.531250000000000000e-01
5.914062500000000000e+01 9.843750000000000000e-01
6.012500000000000000e+01 9.843750000000000000e-01
6.112500000000000000e+01 1.000000000000000000e+00
6.206250000000000000e+01 9.375000000000000000e-01
6.300000000000000000e+01 9.375000000000000000e-01
6.387500000000000000e+01 8.750000000000000000e-01
6.476562500000000000e+01 8.906250000000000000e-01
6.565625000000000000e+01 8.906250000000000000e-01
6.651562500000000000e+01 8.593750000000000000e-01
6.739062500000000000e+01 8.750000000000000000e-01
6.821875000000000000e+01 8.281250000000000000e-01
6.904687500000000000e+01 8.281250000000000000e-01
7.000000000000000000e+01 9.531250000000000000e-01
7.098437500000000000e+01 9.843750000000000000e-01
7.196875000000000000e+01 9.843750000000000000e-01
7.289062500000000000e+01 9.218750000000000000e-01
7.385937500000000000e+01 9.687500000000000000e-01
7.473437500000000000e+01 8.750000000000000000e-01
7.564062500000000000e+01 9.062500000000000000e-01
7.653125000000000000e+01 8.906250000000000000e-01
7.737500000000000000e+01 8.437500000000000000e-01
7.829687500000000000e+01 9.218750000000000000e-01
7.926562500000000000e+01 9.687500000000000000e-01
8.020312500000000000e+01 9.375000000000000000e-01
8.118750000000000000e+01 9.843750000000000000e-01
8.209375000000000000e+01 9.062500000000000000e-01
8.304687500000000000e+01 9.531250000000000000e-01
8.392187500000000000e+01 8.750000000000000000e-01
8.484375000000000000e+01 9.218750000000000000e-01
8.568750000000000000e+01 8.437500000000000000e-01
8.651562500000000000e+01 8.281250000000000000e-01
8.728125000000000000e+01 7.656250000000000000e-01
8.810937500000000000e+01 8.281250000000000000e-01
8.895312500000000000e+01 8.437500000000000000e-01
8.979687500000000000e+01 8.437500000000000000e-01
9.068750000000000000e+01 8.906250000000000000e-01
9.154687500000000000e+01 8.593750000000000000e-01
9.248437500000000000e+01 9.375000000000000000e-01
9.345312500000000000e+01 9.687500000000000000e-01
9.439062500000000000e+01 9.375000000000000000e-01
9.531250000000000000e+01 9.218750000000000000e-01
9.620312500000000000e+01 8.906250000000000000e-01
9.707812500000000000e+01 8.750000000000000000e-01
9.792187500000000000e+01 8.437500000000000000e-01
9.871875000000000000e+01 7.968750000000000000e-01
9.956250000000000000e+01 8.437500000000000000e-01
1.003906250000000000e+02 8.281250000000000000e-01
1.012812500000000000e+02 8.906250000000000000e-01
1.021875000000000000e+02 9.062500000000000000e-01
1.030312500000000000e+02 8.437500000000000000e-01
1.039375000000000000e+02 9.062500000000000000e-01
1.047968750000000000e+02 8.593750000000000000e-01
1.056875000000000000e+02 8.906250000000000000e-01
1.065625000000000000e+02 8.750000000000000000e-01
1.074531250000000000e+02 8.906250000000000000e-01
1.082812500000000000e+02 8.281250000000000000e-01
1.091250000000000000e+02 8.437500000000000000e-01
1.099531250000000000e+02 8.281250000000000000e-01
1.108125000000000000e+02 8.593750000000000000e-01
1.116562500000000000e+02 8.437500000000000000e-01
1.125625000000000000e+02 9.062500000000000000e-01
1.134843750000000000e+02 9.218750000000000000e-01
1.144218750000000000e+02 9.375000000000000000e-01
1.153281250000000000e+02 9.062500000000000000e-01
1.162187500000000000e+02 8.906250000000000000e-01
1.171250000000000000e+02 9.062500000000000000e-01
1.179843750000000000e+02 8.593750000000000000e-01
1.188906250000000000e+02 9.062500000000000000e-01
1.197968750000000000e+02 9.062500000000000000e-01
1.207031250000000000e+02 9.062500000000000000e-01
1.216406250000000000e+02 9.375000000000000000e-01
1.225000000000000000e+02 8.593750000000000000e-01
1.233750000000000000e+02 8.750000000000000000e-01
1.242343750000000000e+02 8.593750000000000000e-01
1.250781250000000000e+02 8.437500000000000000e-01
1.258593750000000000e+02 7.812500000000000000e-01
1.266718750000000000e+02 8.125000000000000000e-01
1.275000000000000000e+02 8.281250000000000000e-01
1.283593750000000000e+02 8.593750000000000000e-01
1.292656250000000000e+02 9.062500000000000000e-01
1.301718750000000000e+02 9.062500000000000000e-01
1.310781250000000000e+02 9.062500000000000000e-01
1.319687500000000000e+02 8.906250000000000000e-01
1.327500000000000000e+02 7.812500000000000000e-01
1.332343750000000000e+02 4.843750000000000000e-01
1.336875000000000000e+02 4.531250000000000000e-01
1.345625000000000000e+02 8.750000000000000000e-01
1.354375000000000000e+02 8.750000000000000000e-01
1.363593750000000000e+02 9.218750000000000000e-01
1.372187500000000000e+02 8.593750000000000000e-01
1.381562500000000000e+02 9.375000000000000000e-01
1.390781250000000000e+02 9.218750000000000000e-01
1.399218750000000000e+02 8.437500000000000000e-01
1.407343750000000000e+02 8.125000000000000000e-01
1.416093750000000000e+02 8.750000000000000000e-01
1.424687500000000000e+02 8.593750000000000000e-01
1.433437500000000000e+02 8.750000000000000000e-01
1.442812500000000000e+02 9.375000000000000000e-01
1.451718750000000000e+02 8.906250000000000000e-01
1.460937500000000000e+02 9.218750000000000000e-01
1.470781250000000000e+02 9.843750000000000000e-01
1.480312500000000000e+02 9.531250000000000000e-01
1.490156250000000000e+02 9.843750000000000000e-01
1.500000000000000000e+02 9.843750000000000000e-01
1.508906250000000000e+02 8.906250000000000000e-01
1.518125000000000000e+02 9.218750000000000000e-01
1.527031250000000000e+02 8.906250000000000000e-01
1.535468750000000000e+02 8.437500000000000000e-01
1.544687500000000000e+02 9.218750000000000000e-01
1.553750000000000000e+02 9.062500000000000000e-01
1.562968750000000000e+02 9.218750000000000000e-01
1.571093750000000000e+02 8.125000000000000000e-01
1.579062500000000000e+02 7.968750000000000000e-01
1.587031250000000000e+02 7.968750000000000000e-01
1.595625000000000000e+02 8.593750000000000000e-01
1.604531250000000000e+02 8.906250000000000000e-01
1.613125000000000000e+02 8.593750000000000000e-01
1.622187500000000000e+02 9.062500000000000000e-01
1.631562500000000000e+02 9.375000000000000000e-01
1.640781250000000000e+02 9.218750000000000000e-01
1.650312500000000000e+02 9.531250000000000000e-01
1.659062500000000000e+02 8.750000000000000000e-01
1.667968750000000000e+02 8.906250000000000000e-01
1.677031250000000000e+02 9.062500000000000000e-01
1.685468750000000000e+02 8.437500000000000000e-01
1.694531250000000000e+02 9.062500000000000000e-01
1.703437500000000000e+02 8.906250000000000000e-01
1.712343750000000000e+02 8.906250000000000000e-01
1.721250000000000000e+02 8.906250000000000000e-01
1.730312500000000000e+02 9.062500000000000000e-01
1.739375000000000000e+02 9.062500000000000000e-01
1.748593750000000000e+02 9.218750000000000000e-01
1.757500000000000000e+02 8.906250000000000000e-01
1.766562500000000000e+02 9.062500000000000000e-01
1.775625000000000000e+02 9.062500000000000000e-01
1.784375000000000000e+02 8.750000000000000000e-01
1.793437500000000000e+02 9.062500000000000000e-01
1.801406250000000000e+02 7.968750000000000000e-01
1.810156250000000000e+02 8.750000000000000000e-01
1.818750000000000000e+02 8.593750000000000000e-01
1.826718750000000000e+02 7.968750000000000000e-01
1.835625000000000000e+02 8.906250000000000000e-01
1.844375000000000000e+02 8.750000000000000000e-01
1.852500000000000000e+02 8.125000000000000000e-01
1.861093750000000000e+02 8.593750000000000000e-01
1.869687500000000000e+02 8.593750000000000000e-01
1.878906250000000000e+02 9.218750000000000000e-01
1.887656250000000000e+02 8.750000000000000000e-01
1.896875000000000000e+02 9.218750000000000000e-01
1.905000000000000000e+02 8.125000000000000000e-01
1.913437500000000000e+02 8.437500000000000000e-01
1.921562500000000000e+02 8.125000000000000000e-01
1.929531250000000000e+02 7.968750000000000000e-01
1.937343750000000000e+02 7.812500000000000000e-01
1.944375000000000000e+02 7.031250000000000000e-01
1.952031250000000000e+02 7.656250000000000000e-01
1.958906250000000000e+02 6.875000000000000000e-01
1.966406250000000000e+02 7.500000000000000000e-01
1.974375000000000000e+02 7.968750000000000000e-01
1.982187500000000000e+02 7.812500000000000000e-01
1.989687500000000000e+02 7.500000000000000000e-01
1.997500000000000000e+02 7.812500000000000000e-01
2.005468750000000000e+02 7.968750000000000000e-01
2.013750000000000000e+02 8.281250000000000000e-01
2.022500000000000000e+02 8.750000000000000000e-01
2.031093750000000000e+02 8.593750000000000000e-01
2.040156250000000000e+02 9.062500000000000000e-01
2.049062500000000000e+02 8.906250000000000000e-01
2.057812500000000000e+02 8.750000000000000000e-01
2.065468750000000000e+02 7.656250000000000000e-01
2.073281250000000000e+02 7.812500000000000000e-01
2.080781250000000000e+02 7.500000000000000000e-01
2.088750000000000000e+02 7.968750000000000000e-01
2.096093750000000000e+02 7.343750000000000000e-01
2.104062500000000000e+02 7.968750000000000000e-01
2.112187500000000000e+02 8.125000000000000000e-01
2.120156250000000000e+02 7.968750000000000000e-01
2.128125000000000000e+02 7.968750000000000000e-01
2.136406250000000000e+02 8.281250000000000000e-01
2.143750000000000000e+02 7.343750000000000000e-01
2.151406250000000000e+02 7.656250000000000000e-01
2.159531250000000000e+02 8.125000000000000000e-01
2.167968750000000000e+02 8.437500000000000000e-01
2.176250000000000000e+02 8.281250000000000000e-01
2.185000000000000000e+02 8.750000000000000000e-01
2.193906250000000000e+02 8.906250000000000000e-01
2.202187500000000000e+02 8.281250000000000000e-01
2.210937500000000000e+02 8.750000000000000000e-01
2.219375000000000000e+02 8.437500000000000000e-01
2.227812500000000000e+02 8.437500000000000000e-01
2.235312500000000000e+02 7.500000000000000000e-01
2.243125000000000000e+02 7.812500000000000000e-01
2.251406250000000000e+02 8.281250000000000000e-01
2.259531250000000000e+02 8.125000000000000000e-01
2.267968750000000000e+02 8.437500000000000000e-01
2.275937500000000000e+02 7.968750000000000000e-01
2.284843750000000000e+02 8.906250000000000000e-01
2.293125000000000000e+02 8.281250000000000000e-01
2.301875000000000000e+02 8.750000000000000000e-01
2.310781250000000000e+02 8.906250000000000000e-01
2.319062500000000000e+02 8.281250000000000000e-01
2.327031250000000000e+02 7.968750000000000000e-01
2.334531250000000000e+02 7.500000000000000000e-01
2.341718750000000000e+02 7.187500000000000000e-01
2.348906250000000000e+02 7.187500000000000000e-01
2.356093750000000000e+02 7.187500000000000000e-01
2.364062500000000000e+02 7.968750000000000000e-01
2.372187500000000000e+02 8.125000000000000000e-01
2.380625000000000000e+02 8.437500000000000000e-01
2.389687500000000000e+02 9.062500000000000000e-01
2.398281250000000000e+02 8.593750000000000000e-01
2.407812500000000000e+02 9.531250000000000000e-01
2.417031250000000000e+02 9.218750000000000000e-01
2.425468750000000000e+02 8.437500000000000000e-01
2.434062500000000000e+02 8.593750000000000000e-01
2.444375000000000000e+02 1.031250000000000000e+00
2.450937500000000000e+02 6.562500000000000000e-01
2.459687500000000000e+02 8.750000000000000000e-01
2.467656250000000000e+02 7.968750000000000000e-01
2.476250000000000000e+02 8.593750000000000000e-01
2.485000000000000000e+02 8.750000000000000000e-01
2.493125000000000000e+02 8.125000000000000000e-01
2.501562500000000000e+02 8.437500000000000000e-01
2.509687500000000000e+02 8.125000000000000000e-01
2.517968750000000000e+02 8.281250000000000000e-01
2.526250000000000000e+02 8.281250000000000000e-01
2.534843750000000000e+02 8.593750000000000000e-01
2.543125000000000000e+02 8.281250000000000000e-01
2.551406250000000000e+02 8.281250000000000000e-01
2.560312500000000000e+02 8.906250000000000000e-01
2.568750000000000000e+02 8.437500000000000000e-01
2.577500000000000000e+02 8.750000000000000000e-01
2.586250000000000000e+02 8.750000000000000000e-01
2.594843750000000000e+02 8.593750000000000000e-01
2.603906250000000000e+02 9.062500000000000000e-01
2.612656250000000000e+02 8.750000000000000000e-01
2.621562500000000000e+02 8.906250000000000000e-01
2.630781250000000000e+02 9.218750000000000000e-01
2.639843750000000000e+02 9.062500000000000000e-01
2.649375000000000000e+02 9.531250000000000000e-01
2.658750000000000000e+02 9.375000000000000000e-01
2.667968750000000000e+02 9.218750000000000000e-01
2.677187500000000000e+02 9.218750000000000000e-01
2.685312500000000000e+02 8.125000000000000000e-01
2.693437500000000000e+02 8.125000000000000000e-01
2.701875000000000000e+02 8.437500000000000000e-01
2.709843750000000000e+02 7.968750000000000000e-01
2.719375000000000000e+02 9.531250000000000000e-01
2.728593750000000000e+02 9.218750000000000000e-01
2.737343750000000000e+02 8.750000000000000000e-01
2.745156250000000000e+02 7.812500000000000000e-01
2.753281250000000000e+02 8.125000000000000000e-01
2.760937500000000000e+02 7.656250000000000000e-01
2.769531250000000000e+02 8.593750000000000000e-01
2.777968750000000000e+02 8.437500000000000000e-01
2.787031250000000000e+02 9.062500000000000000e-01
2.795625000000000000e+02 8.593750000000000000e-01
2.804062500000000000e+02 8.437500000000000000e-01
2.812812500000000000e+02 8.750000000000000000e-01
2.821093750000000000e+02 8.281250000000000000e-01
2.830312500000000000e+02 9.218750000000000000e-01
2.840000000000000000e+02 9.687500000000000000e-01
2.849218750000000000e+02 9.218750000000000000e-01
2.858281250000000000e+02 9.062500000000000000e-01
2.867187500000000000e+02 8.906250000000000000e-01
2.875781250000000000e+02 8.593750000000000000e-01
2.884218750000000000e+02 8.437500000000000000e-01
2.892187500000000000e+02 7.968750000000000000e-01
2.900312500000000000e+02 8.125000000000000000e-01
2.908437500000000000e+02 8.125000000000000000e-01
2.916406250000000000e+02 7.968750000000000000e-01
2.925000000000000000e+02 8.593750000000000000e-01
2.933593750000000000e+02 8.593750000000000000e-01
2.942343750000000000e+02 8.750000000000000000e-01
2.951406250000000000e+02 9.062500000000000000e-01
2.959843750000000000e+02 8.437500000000000000e-01
2.968437500000000000e+02 8.593750000000000000e-01
2.976562500000000000e+02 8.125000000000000000e-01
2.985156250000000000e+02 8.593750000000000000e-01
2.993437500000000000e+02 8.281250000000000000e-01
3.001562500000000000e+02 8.125000000000000000e-01
3.009531250000000000e+02 7.968750000000000000e-01
3.017812500000000000e+02 8.281250000000000000e-01
3.025781250000000000e+02 7.968750000000000000e-01
3.033750000000000000e+02 7.968750000000000000e-01
3.042031250000000000e+02 8.281250000000000000e-01
3.049687500000000000e+02 7.656250000000000000e-01
3.058281250000000000e+02 8.593750000000000000e-01
3.067187500000000000e+02 8.906250000000000000e-01
3.075781250000000000e+02 8.593750000000000000e-01
3.085468750000000000e+02 9.687500000000000000e-01
3.094375000000000000e+02 8.906250000000000000e-01
3.102812500000000000e+02 8.437500000000000000e-01
3.111093750000000000e+02 8.281250000000000000e-01
3.119375000000000000e+02 8.281250000000000000e-01
3.127812500000000000e+02 8.437500000000000000e-01
3.137343750000000000e+02 9.531250000000000000e-01
3.146718750000000000e+02 9.375000000000000000e-01
3.156562500000000000e+02 9.843750000000000000e-01
3.167031250000000000e+02 1.046875000000000000e+00
3.176718750000000000e+02 9.687500000000000000e-01
3.186250000000000000e+02 9.531250000000000000e-01
3.194843750000000000e+02 8.593750000000000000e-01
3.203906250000000000e+02 9.062500000000000000e-01
3.213437500000000000e+02 9.531250000000000000e-01
3.222343750000000000e+02 8.906250000000000000e-01
3.232187500000000000e+02 9.843750000000000000e-01
3.241875000000000000e+02 9.687500000000000000e-01
3.251562500000000000e+02 9.687500000000000000e-01
3.261093750000000000e+02 9.531250000000000000e-01
3.270625000000000000e+02 9.531250000000000000e-01
3.280312500000000000e+02 9.687500000000000000e-01
3.290468750000000000e+02 1.015625000000000000e+00
3.300000000000000000e+02 9.531250000000000000e-01
3.310312500000000000e+02 1.031250000000000000e+00
3.320312500000000000e+02 1.000000000000000000e+00
3.330156250000000000e+02 9.843750000000000000e-01
3.340000000000000000e+02 9.843750000000000000e-01
3.350000000000000000e+02 1.000000000000000000e+00
3.359843750000000000e+02 9.843750000000000000e-01
3.369687500000000000e+02 9.843750000000000000e-01
3.379687500000000000e+02 1.000000000000000000e+00
3.389218750000000000e+02 9.531250000000000000e-01
3.399062500000000000e+02 9.843750000000000000e-01
3.408750000000000000e+02 9.687500000000000000e-01
3.418281250000000000e+02 9.531250000000000000e-01
3.427500000000000000e+02 9.218750000000000000e-01
3.436406250000000000e+02 8.906250000000000000e-01
3.445937500000000000e+02 9.531250000000000000e-01
3.455781250000000000e+02 9.843750000000000000e-01
3.465156250000000000e+02 9.375000000000000000e-01
3.474531250000000000e+02 9.375000000000000000e-01
3.483125000000000000e+02 8.593750000000000000e-01
3.492500000000000000e+02 9.375000000000000000e-01
3.502343750000000000e+02 9.843750000000000000e-01
3.512968750000000000e+02 1.062500000000000000e+00
3.522968750000000000e+02 1.000000000000000000e+00
3.532500000000000000e+02 9.531250000000000000e-01
3.541718750000000000e+02 9.218750000000000000e-01
3.550312500000000000e+02 8.593750000000000000e-01
3.560000000000000000e+02 9.687500000000000000e-01
3.570156250000000000e+02 1.015625000000000000e+00
3.580468750000000000e+02 1.031250000000000000e+00
3.592500000000000000e+02 1.203125000000000000e+00
3.603437500000000000e+02 1.093750000000000000e+00
3.614375000000000000e+02 1.093750000000000000e+00
3.624218750000000000e+02 9.843750000000000000e-01
3.635156250000000000e+02 1.093750000000000000e+00
3.645156250000000000e+02 1.000000000000000000e+00
3.654843750000000000e+02 9.687500000000000000e-01
3.664375000000000000e+02 9.531250000000000000e-01
3.672968750000000000e+02 8.593750000000000000e-01
3.682656250000000000e+02 9.687500000000000000e-01
3.692187500000000000e+02 9.531250000000000000e-01
3.702812500000000000e+02 1.062500000000000000e+00
3.712812500000000000e+02 1.000000000000000000e+00
3.723281250000000000e+02 1.046875000000000000e+00
3.733125000000000000e+02 9.843750000000000000e-01
3.743125000000000000e+02 1.000000000000000000e+00
3.752656250000000000e+02 9.531250000000000000e-01
3.762812500000000000e+02 1.015625000000000000e+00
3.772343750000000000e+02 9.531250000000000000e-01
3.781875000000000000e+02 9.531250000000000000e-01
3.790625000000000000e+02 8.750000000000000000e-01
3.798281250000000000e+02 7.656250000000000000e-01
3.806562500000000000e+02 8.281250000000000000e-01
3.815312500000000000e+02 8.750000000000000000e-01
3.824843750000000000e+02 9.531250000000000000e-01
3.833906250000000000e+02 9.062500000000000000e-01
3.843593750000000000e+02 9.687500000000000000e-01
3.853125000000000000e+02 9.531250000000000000e-01
3.862812500000000000e+02 9.687500000000000000e-01
3.872187500000000000e+02 9.375000000000000000e-01
3.881250000000000000e+02 9.062500000000000000e-01
3.890468750000000000e+02 9.218750000000000000e-01
3.899375000000000000e+02 8.906250000000000000e-01
3.908906250000000000e+02 9.531250000000000000e-01
3.918437500000000000e+02 9.531250000000000000e-01
3.928281250000000000e+02 9.843750000000000000e-01
3.938281250000000000e+02 1.000000000000000000e+00
3.947656250000000000e+02 9.375000000000000000e-01
3.957500000000000000e+02 9.843750000000000000e-01
3.966718750000000000e+02 9.218750000000000000e-01
3.975781250000000000e+02 9.062500000000000000e-01
3.984843750000000000e+02 9.062500000000000000e-01
3.993437500000000000e+02 8.593750000000000000e-01
4.002968750000000000e+02 9.531250000000000000e-01
4.012656250000000000e+02 9.687500000000000000e-01
4.022031250000000000e+02 9.375000000000000000e-01
4.032343750000000000e+02 1.031250000000000000e+00
4.042031250000000000e+02 9.687500000000000000e-01
4.052031250000000000e+02 1.000000000000000000e+00
4.062343750000000000e+02 1.031250000000000000e+00
4.071562500000000000e+02 9.218750000000000000e-01
4.081718750000000000e+02 1.015625000000000000e+00
4.091250000000000000e+02 9.531250000000000000e-01
4.102343750000000000e+02 1.109375000000000000e+00
4.112500000000000000e+02 1.015625000000000000e+00
4.122968750000000000e+02 1.046875000000000000e+00
4.132812500000000000e+02 9.843750000000000000e-01
4.143125000000000000e+02 1.031250000000000000e+00
4.153593750000000000e+02 1.046875000000000000e+00
4.163750000000000000e+02 1.015625000000000000e+00
4.173593750000000000e+02 9.843750000000000000e-01
4.182968750000000000e+02 9.375000000000000000e-01
4.192500000000000000e+02 9.531250000000000000e-01
4.202500000000000000e+02 1.000000000000000000e+00
4.211875000000000000e+02 9.375000000000000000e-01
4.222031250000000000e+02 1.015625000000000000e+00
4.232031250000000000e+02 1.000000000000000000e+00
4.242500000000000000e+02 1.046875000000000000e+00
4.252500000000000000e+02 1.000000000000000000e+00
4.261875000000000000e+02 9.375000000000000000e-01
4.271406250000000000e+02 9.531250000000000000e-01
4.280468750000000000e+02 9.062500000000000000e-01
4.289843750000000000e+02 9.375000000000000000e-01
4.299531250000000000e+02 9.687500000000000000e-01
4.309062500000000000e+02 9.531250000000000000e-01
4.318593750000000000e+02 9.531250000000000000e-01
4.328593750000000000e+02 1.000000000000000000e+00
4.338281250000000000e+02 9.687500000000000000e-01
4.348281250000000000e+02 1.000000000000000000e+00
4.357812500000000000e+02 9.531250000000000000e-01
4.367968750000000000e+02 1.015625000000000000e+00
4.377343750000000000e+02 9.375000000000000000e-01
4.387031250000000000e+02 9.687500000000000000e-01
4.395781250000000000e+02 8.750000000000000000e-01
4.404531250000000000e+02 8.750000000000000000e-01
4.413437500000000000e+02 8.906250000000000000e-01
4.422343750000000000e+02 8.906250000000000000e-01
4.431562500000000000e+02 9.218750000000000000e-01
4.440937500000000000e+02 9.375000000000000000e-01
4.450000000000000000e+02 9.062500000000000000e-01
4.459843750000000000e+02 9.843750000000000000e-01
4.470156250000000000e+02 1.031250000000000000e+00
4.479687500000000000e+02 9.531250000000000000e-01
4.489062500000000000e+02 9.375000000000000000e-01
4.497968750000000000e+02 8.906250000000000000e-01
4.507187500000000000e+02 9.218750000000000000e-01
4.517187500000000000e+02 1.000000000000000000e+00
4.527031250000000000e+02 9.843750000000000000e-01
4.537656250000000000e+02 1.062500000000000000e+00
4.547812500000000000e+02 1.015625000000000000e+00
4.557500000000000000e+02 9.687500000000000000e-01
4.567187500000000000e+02 9.687500000000000000e-01
4.576250000000000000e+02 9.062500000000000000e-01
4.585625000000000000e+02 9.375000000000000000e-01
4.594843750000000000e+02 9.218750000000000000e-01
4.603750000000000000e+02 8.906250000000000000e-01
4.613593750000000000e+02 9.843750000000000000e-01
4.623125000000000000e+02 9.531250000000000000e-01
4.631875000000000000e+02 8.750000000000000000e-01
4.641250000000000000e+02 9.375000000000000000e-01
4.650781250000000000e+02 9.531250000000000000e-01
4.660000000000000000e+02 9.218750000000000000e-01
4.669843750000000000e+02 9.843750000000000000e-01
4.679843750000000000e+02 1.000000000000000000e+00
4.690468750000000000e+02 1.062500000000000000e+00
4.700781250000000000e+02 1.031250000000000000e+00
4.710312500000000000e+02 9.531250000000000000e-01
4.719531250000000000e+02 9.218750000000000000e-01
4.728750000000000000e+02 9.218750000000000000e-01
4.737968750000000000e+02 9.218750000000000000e-01
4.747187500000000000e+02 9.218750000000000000e-01
4.755781250000000000e+02 8.593750000000000000e-01
4.765156250000000000e+02 9.375000000000000000e-01
4.774375000000000000e+02 9.218750000000000000e-01
4.783593750000000000e+02 9.218750000000000000e-01
4.792812500000000000e+02 9.218750000000000000e-01
4.801250000000000000e+02 8.437500000000000000e-01
4.809062500000000000e+02 7.812500000000000000e-01
4.816718750000000000e+02 7.656250000000000000e-01
4.824687500000000000e+02 7.968750000000000000e-01
4.833125000000000000e+02 8.437500000000000000e-01
4.842187500000000000e+02 9.062500000000000000e-01
4.850468750000000000e+02 8.281250000000000000e-01
4.859375000000000000e+02 8.906250000000000000e-01
4.867812500000000000e+02 8.437500000000000000e-01
4.876875000000000000e+02 9.062500000000000000e-01
4.886093750000000000e+02 9.218750000000000000e-01
4.895000000000000000e+02 8.906250000000000000e-01
4.903906250000000000e+02 8.906250000000000000e-01
4.912500000000000000e+02 8.593750000000000000e-01
4.921562500000000000e+02 9.062500000000000000e-01
4.930937500000000000e+02 9.375000000000000000e-01
4.940468750000000000e+02 9.531250000000000000e-01
4.950312500000000000e+02 9.843750000000000000e-01
4.960156250000000000e+02 9.843750000000000000e-01
4.969531250000000000e+02 9.375000000000000000e-01
4.978593750000000000e+02 9.062500000000000000e-01
4.986718750000000000e+02 8.125000000000000000e-01
4.995156250000000000e+02 8.437500000000000000e-01
5.003750000000000000e+02 8.593750000000000000e-01
5.012812500000000000e+02 9.062500000000000000e-01
5.022031250000000000e+02 9.218750000000000000e-01
5.030000000000000000e+02 7.968750000000000000e-01
5.038593750000000000e+02 8.593750000000000000e-01
5.047187500000000000e+02 8.593750000000000000e-01
5.055625000000000000e+02 8.437500000000000000e-01
5.064218750000000000e+02 8.593750000000000000e-01
5.072812500000000000e+02 8.593750000000000000e-01
5.081718750000000000e+02 8.906250000000000000e-01
5.090000000000000000e+02 8.281250000000000000e-01
5.099062500000000000e+02 9.062500000000000000e-01
5.108906250000000000e+02 9.843750000000000000e-01
5.117812500000000000e+02 8.906250000000000000e-01
5.127031250000000000e+02 9.218750000000000000e-01
5.136250000000000000e+02 9.218750000000000000e-01
5.145781250000000000e+02 9.531250000000000000e-01
5.155468750000000000e+02 9.687500000000000000e-01
5.164687500000000000e+02 9.218750000000000000e-01
5.175000000000000000e+02 1.031250000000000000e+00
5.184531250000000000e+02 9.531250000000000000e-01
5.194687500000000000e+02 1.015625000000000000e+00
5.204375000000000000e+02 9.687500000000000000e-01
5.214218750000000000e+02 9.843750000000000000e-01
5.223906250000000000e+02 9.687500000000000000e-01
5.234218750000000000e+02 1.031250000000000000e+00
5.244218750000000000e+02 1.000000000000000000e+00
5.254375000000000000e+02 1.015625000000000000e+00
5.264062500000000000e+02 9.687500000000000000e-01
5.273906250000000000e+02 9.843750000000000000e-01
5.283593750000000000e+02 9.687500000000000000e-01
5.292812500000000000e+02 9.218750000000000000e-01
5.302656250000000000e+02 9.843750000000000000e-01
5.312031250000000000e+02 9.375000000000000000e-01
5.321562500000000000e+02 9.531250000000000000e-01
5.331718750000000000e+02 1.015625000000000000e+00
5.341718750000000000e+02 1.000000000000000000e+00
5.352968750000000000e+02 1.125000000000000000e+00
5.363125000000000000e+02 1.015625000000000000e+00
5.373750000000000000e+02 1.062500000000000000e+00
5.383281250000000000e+02 9.531250000000000000e-01
5.392968750000000000e+02 9.687500000000000000e-01
5.402656250000000000e+02 9.687500000000000000e-01
5.411562500000000000e+02 8.906250000000000000e-01
5.421875000000000000e+02 1.031250000000000000e+00
5.432343750000000000e+02 1.046875000000000000e+00
5.442968750000000000e+02 1.062500000000000000e+00
5.452968750000000000e+02 1.000000000000000000e+00
5.462812500000000000e+02 9.843750000000000000e-01
5.472343750000000000e+02 9.531250000000000000e-01
5.481406250000000000e+02 9.062500000000000000e-01
5.491250000000000000e+02 9.843750000000000000e-01
5.501562500000000000e+02 1.031250000000000000e+00
5.511718750000000000e+02 1.015625000000000000e+00
5.523125000000000000e+02 1.140625000000000000e+00
5.533437500000000000e+02 1.031250000000000000e+00
5.544062500000000000e+02 1.062500000000000000e+00
5.553906250000000000e+02 9.843750000000000000e-01
5.563750000000000000e+02 9.843750000000000000e-01
5.573281250000000000e+02 9.531250000000000000e-01
5.582656250000000000e+02 9.375000000000000000e-01
5.592187500000000000e+02 9.531250000000000000e-01
5.601718750000000000e+02 9.531250000000000000e-01
5.611875000000000000e+02 1.015625000000000000e+00
5.621718750000000000e+02 9.843750000000000000e-01
5.632187500000000000e+02 1.046875000000000000e+00
5.642500000000000000e+02 1.031250000000000000e+00
5.651875000000000000e+02 9.375000000000000000e-01
5.662343750000000000e+02 1.046875000000000000e+00
5.672187500000000000e+02 9.843750000000000000e-01
5.682187500000000000e+02 1.000000000000000000e+00
5.692812500000000000e+02 1.062500000000000000e+00
5.702656250000000000e+02 9.843750000000000000e-01
5.712812500000000000e+02 1.015625000000000000e+00
5.722500000000000000e+02 9.687500000000000000e-01
5.732968750000000000e+02 1.046875000000000000e+00
5.742968750000000000e+02 1.000000000000000000e+00
5.752812500000000000e+02 9.843750000000000000e-01
5.762812500000000000e+02 1.000000000000000000e+00
5.771250000000000000e+02 8.437500000000000000e-01
5.780312500000000000e+02 9.062500000000000000e-01
5.791718750000000000e+02 1.140625000000000000e+00
5.803125000000000000e+02 1.140625000000000000e+00
5.813593750000000000e+02 1.046875000000000000e+00
5.824062500000000000e+02 1.046875000000000000e+00
5.833750000000000000e+02 9.687500000000000000e-01
5.843750000000000000e+02 1.000000000000000000e+00
5.853593750000000000e+02 9.843750000000000000e-01
5.862812500000000000e+02 9.218750000000000000e-01
5.872656250000000000e+02 9.843750000000000000e-01
5.882343750000000000e+02 9.687500000000000000e-01
5.891562500000000000e+02 9.218750000000000000e-01
5.900781250000000000e+02 9.218750000000000000e-01
5.909531250000000000e+02 8.750000000000000000e-01
5.917343750000000000e+02 7.812500000000000000e-01
5.925625000000000000e+02 8.281250000000000000e-01
5.934062500000000000e+02 8.437500000000000000e-01
5.943437500000000000e+02 9.375000000000000000e-01
5.953750000000000000e+02 1.031250000000000000e+00
5.963125000000000000e+02 9.375000000000000000e-01
5.973125000000000000e+02 1.000000000000000000e+00
5.982500000000000000e+02 9.375000000000000000e-01
5.992187500000000000e+02 9.687500000000000000e-01
6.001718750000000000e+02 9.531250000000000000e-01
6.011093750000000000e+02 9.375000000000000000e-01
6.020781250000000000e+02 9.687500000000000000e-01
6.029843750000000000e+02 9.062500000000000000e-01
6.039062500000000000e+02 9.218750000000000000e-01
6.048281250000000000e+02 9.218750000000000000e-01
6.057343750000000000e+02 9.062500000000000000e-01
6.067031250000000000e+02 9.687500000000000000e-01
6.077031250000000000e+02 1.000000000000000000e+00
6.087187500000000000e+02 1.015625000000000000e+00
6.098593750000000000e+02 1.140625000000000000e+00
6.108750000000000000e+02 1.015625000000000000e+00
6.118125000000000000e+02 9.375000000000000000e-01
6.126406250000000000e+02 8.281250000000000000e-01
6.135000000000000000e+02 8.593750000000000000e-01
6.143281250000000000e+02 8.281250000000000000e-01
6.152187500000000000e+02 8.906250000000000000e-01
6.160781250000000000e+02 8.593750000000000000e-01
6.170156250000000000e+02 9.375000000000000000e-01
6.179687500000000000e+02 9.531250000000000000e-01
6.188125000000000000e+02 8.437500000000000000e-01
6.196406250000000000e+02 8.281250000000000000e-01
6.205312500000000000e+02 8.906250000000000000e-01
6.213125000000000000e+02 7.812500000000000000e-01
6.222031250000000000e+02 8.906250000000000000e-01
6.231406250000000000e+02 9.375000000000000000e-01
6.241093750000000000e+02 9.687500000000000000e-01
6.250937500000000000e+02 9.843750000000000000e-01
6.260937500000000000e+02 1.000000000000000000e+00
6.271250000000000000e+02 1.031250000000000000e+00
6.280937500000000000e+02 9.687500000000000000e-01
6.290625000000000000e+02 9.687500000000000000e-01
6.300000000000000000e+02 9.375000000000000000e-01
6.310000000000000000e+02 1.000000000000000000e+00
6.320312500000000000e+02 1.031250000000000000e+00
6.329375000000000000e+02 9.062500000000000000e-01
6.339531250000000000e+02 1.015625000000000000e+00
6.349062500000000000e+02 9.531250000000000000e-01
6.358281250000000000e+02 9.218750000000000000e-01
6.367968750000000000e+02 9.687500000000000000e-01
6.376406250000000000e+02 8.437500000000000000e-01
6.385312500000000000e+02 8.906250000000000000e-01
6.394531250000000000e+02 9.218750000000000000e-01
6.403125000000000000e+02 8.593750000000000000e-01
6.413437500000000000e+02 1.031250000000000000e+00
6.423437500000000000e+02 1.000000000000000000e+00
6.433750000000000000e+02 1.031250000000000000e+00
6.443906250000000000e+02 1.015625000000000000e+00
6.454218750000000000e+02 1.031250000000000000e+00
6.464531250000000000e+02 1.031250000000000000e+00
6.473906250000000000e+02 9.375000000000000000e-01
6.483750000000000000e+02 9.843750000000000000e-01
6.493281250000000000e+02 9.531250000000000000e-01
6.503281250000000000e+02 1.000000000000000000e+00
6.513906250000000000e+02 1.062500000000000000e+00
6.523750000000000000e+02 9.843750000000000000e-01
6.533906250000000000e+02 1.015625000000000000e+00
6.543750000000000000e+02 9.843750000000000000e-01
6.554218750000000000e+02 1.046875000000000000e+00
6.563750000000000000e+02 9.531250000000000000e-01
6.573593750000000000e+02 9.843750000000000000e-01
6.582812500000000000e+02 9.218750000000000000e-01
6.592500000000000000e+02 9.687500000000000000e-01
6.602343750000000000e+02 9.843750000000000000e-01
6.612968750000000000e+02 1.062500000000000000e+00
6.623281250000000000e+02 1.031250000000000000e+00
6.633593750000000000e+02 1.031250000000000000e+00
6.644218750000000000e+02 1.062500000000000000e+00
6.653906250000000000e+02 9.687500000000000000e-01
6.663750000000000000e+02 9.843750000000000000e-01
6.672812500000000000e+02 9.062500000000000000e-01
6.682343750000000000e+02 9.531250000000000000e-01
6.691250000000000000e+02 8.906250000000000000e-01
6.700000000000000000e+02 8.750000000000000000e-01
6.708125000000000000e+02 8.125000000000000000e-01
6.716562500000000000e+02 8.437500000000000000e-01
6.725000000000000000e+02 8.437500000000000000e-01
6.734375000000000000e+02 9.375000000000000000e-01
6.744218750000000000e+02 9.843750000000000000e-01
6.754062500000000000e+02 9.843750000000000000e-01
6.763906250000000000e+02 9.843750000000000000e-01
6.772968750000000000e+02 9.062500000000000000e-01
6.782500000000000000e+02 9.531250000000000000e-01
6.791718750000000000e+02 9.218750000000000000e-01
6.801093750000000000e+02 9.375000000000000000e-01
6.810937500000000000e+02 9.843750000000000000e-01
6.820000000000000000e+02 9.062500000000000000e-01
6.829843750000000000e+02 9.843750000000000000e-01
6.839062500000000000e+02 9.218750000000000000e-01
6.847968750000000000e+02 8.906250000000000000e-01
6.857500000000000000e+02 9.531250000000000000e-01
6.867031250000000000e+02 9.531250000000000000e-01
6.876093750000000000e+02 9.062500000000000000e-01
6.885781250000000000e+02 9.687500000000000000e-01
6.895625000000000000e+02 9.843750000000000000e-01
6.904843750000000000e+02 9.218750000000000000e-01
6.915156250000000000e+02 1.031250000000000000e+00
6.924531250000000000e+02 9.375000000000000000e-01
6.934375000000000000e+02 9.843750000000000000e-01
6.944218750000000000e+02 9.843750000000000000e-01
6.953906250000000000e+02 9.687500000000000000e-01
6.964218750000000000e+02 1.031250000000000000e+00
6.973593750000000000e+02 9.375000000000000000e-01
6.984375000000000000e+02 1.078125000000000000e+00
6.994062500000000000e+02 9.687500000000000000e-01
7.004218750000000000e+02 1.015625000000000000e+00
7.013906250000000000e+02 9.687500000000000000e-01
7.023593750000000000e+02 9.687500000000000000e-01
7.034218750000000000e+02 1.062500000000000000e+00
7.043906250000000000e+02 9.687500000000000000e-01
7.053906250000000000e+02 1.000000000000000000e+00
7.064531250000000000e+02 1.062500000000000000e+00
7.074843750000000000e+02 1.031250000000000000e+00
7.085312500000000000e+02 1.046875000000000000e+00
7.095781250000000000e+02 1.046875000000000000e+00
7.105625000000000000e+02 9.843750000000000000e-01
7.115937500000000000e+02 1.031250000000000000e+00
7.125625000000000000e+02 9.687500000000000000e-01
7.135625000000000000e+02 1.000000000000000000e+00
7.145781250000000000e+02 1.015625000000000000e+00
7.155468750000000000e+02 9.687500000000000000e-01
7.165625000000000000e+02 1.015625000000000000e+00
7.175312500000000000e+02 9.687500000000000000e-01
7.185156250000000000e+02 9.843750000000000000e-01
7.194687500000000000e+02 9.531250000000000000e-01
7.203906250000000000e+02 9.218750000000000000e-01
7.212968750000000000e+02 9.062500000000000000e-01
7.221406250000000000e+02 8.437500000000000000e-01
7.230312500000000000e+02 8.906250000000000000e-01
7.239375000000000000e+02 9.062500000000000000e-01
7.248125000000000000e+02 8.750000000000000000e-01
7.258125000000000000e+02 1.000000000000000000e+00
7.267812500000000000e+02 9.687500000000000000e-01
7.277812500000000000e+02 1.000000000000000000e+00
7.287812500000000000e+02 1.000000000000000000e+00
7.297968750000000000e+02 1.015625000000000000e+00
7.307968750000000000e+02 1.000000000000000000e+00
7.317656250000000000e+02 9.687500000000000000e-01
7.327500000000000000e+02 9.843750000000000000e-01
7.337187500000000000e+02 9.687500000000000000e-01
7.347343750000000000e+02 1.015625000000000000e+00
7.356562500000000000e+02 9.218750000000000000e-01
7.365937500000000000e+02 9.375000000000000000e-01
7.375312500000000000e+02 9.375000000000000000e-01
7.384062500000000000e+02 8.750000000000000000e-01
7.393437500000000000e+02 9.375000000000000000e-01
7.402812500000000000e+02 9.375000000000000000e-01
7.412500000000000000e+02 9.687500000000000000e-01
7.422812500000000000e+02 1.031250000000000000e+00
7.432656250000000000e+02 9.843750000000000000e-01
7.442968750000000000e+02 1.031250000000000000e+00
7.452656250000000000e+02 9.687500000000000000e-01
7.462500000000000000e+02 9.843750000000000000e-01
7.472187500000000000e+02 9.687500000000000000e-01
7.481718750000000000e+02 9.531250000000000000e-01
7.491406250000000000e+02 9.687500000000000000e-01
7.500625000000000000e+02 9.218750000000000000e-01
7.510312500000000000e+02 9.687500000000000000e-01
7.519843750000000000e+02 9.531250000000000000e-01
7.528125000000000000e+02 8.281250000000000000e-01
7.535781250000000000e+02 7.656250000000000000e-01
7.544375000000000000e+02 8.593750000000000000e-01
7.553437500000000000e+02 9.062500000000000000e-01
7.562968750000000000e+02 9.531250000000000000e-01
7.572500000000000000e+02 9.531250000000000000e-01
7.582187500000000000e+02 9.687500000000000000e-01
7.592187500000000000e+02 1.000000000000000000e+00
7.601250000000000000e+02 9.062500000000000000e-01
7.608750000000000000e+02 7.500000000000000000e-01
7.617656250000000000e+02 8.906250000000000000e-01
7.627500000000000000e+02 9.843750000000000000e-01
7.637812500000000000e+02 1.031250000000000000e+00
7.648125000000000000e+02 1.031250000000000000e+00
7.658593750000000000e+02 1.046875000000000000e+00
7.668906250000000000e+02 1.031250000000000000e+00
7.679375000000000000e+02 1.046875000000000000e+00
7.689218750000000000e+02 9.843750000000000000e-01
7.699375000000000000e+02 1.015625000000000000e+00
7.708750000000000000e+02 9.375000000000000000e-01
7.718281250000000000e+02 9.531250000000000000e-01
7.727500000000000000e+02 9.218750000000000000e-01
7.736875000000000000e+02 9.375000000000000000e-01
7.746406250000000000e+02 9.531250000000000000e-01
7.756093750000000000e+02 9.687500000000000000e-01
7.766093750000000000e+02 1.000000000000000000e+00
7.775625000000000000e+02 9.531250000000000000e-01
7.785625000000000000e+02 1.000000000000000000e+00
7.795312500000000000e+02 9.687500000000000000e-01
7.804843750000000000e+02 9.531250000000000000e-01
7.815156250000000000e+02 1.031250000000000000e+00
7.825156250000000000e+02 1.000000000000000000e+00
7.835468750000000000e+02 1.031250000000000000e+00
7.844687500000000000e+02 9.218750000000000000e-01
7.854375000000000000e+02 9.687500000000000000e-01
7.863750000000000000e+02 9.375000000000000000e-01
7.873437500000000000e+02 9.687500000000000000e-01
7.882968750000000000e+02 9.531250000000000000e-01
7.892656250000000000e+02 9.687500000000000000e-01
7.902656250000000000e+02 1.000000000000000000e+00
7.912031250000000000e+02 9.375000000000000000e-01
7.922187500000000000e+02 1.015625000000000000e+00
7.931875000000000000e+02 9.687500000000000000e-01
7.941562500000000000e+02 9.687500000000000000e-01
7.951406250000000000e+02 9.843750000000000000e-01
7.960312500000000000e+02 8.906250000000000000e-01
7.969531250000000000e+02 9.218750000000000000e-01
7.978906250000000000e+02 9.375000000000000000e-01
7.988125000000000000e+02 9.218750000000000000e-01
7.997968750000000000e+02 9.843750000000000000e-01
8.007187500000000000e+02 9.218750000000000000e-01
8.015312500000000000e+02 8.125000000000000000e-01
8.023906250000000000e+02 8.593750000000000000e-01
8.032343750000000000e+02 8.437500000000000000e-01
8.041718750000000000e+02 9.375000000000000000e-01
8.050468750000000000e+02 8.750000000000000000e-01
8.060000000000000000e+02 9.531250000000000000e-01
8.069375000000000000e+02 9.375000000000000000e-01
8.078750000000000000e+02 9.375000000000000000e-01
8.088125000000000000e+02 9.375000000000000000e-01
8.097343750000000000e+02 9.218750000000000000e-01
8.106562500000000000e+02 9.218750000000000000e-01
8.115625000000000000e+02 9.062500000000000000e-01
8.125156250000000000e+02 9.531250000000000000e-01
8.135625000000000000e+02 1.046875000000000000e+00
8.146250000000000000e+02 1.062500000000000000e+00
8.157343750000000000e+02 1.109375000000000000e+00
8.167500000000000000e+02 1.015625000000000000e+00
8.177968750000000000e+02 1.046875000000000000e+00
8.188437500000000000e+02 1.046875000000000000e+00
8.198593750000000000e+02 1.015625000000000000e+00
8.209062500000000000e+02 1.046875000000000000e+00
8.219062500000000000e+02 1.000000000000000000e+00
8.229218750000000000e+02 1.015625000000000000e+00
8.239062500000000000e+02 9.843750000000000000e-01
8.249062500000000000e+02 1.000000000000000000e+00
8.258906250000000000e+02 9.843750000000000000e-01
8.268125000000000000e+02 9.218750000000000000e-01
8.277812500000000000e+02 9.687500000000000000e-01
8.287031250000000000e+02 9.218750000000000000e-01
8.296562500000000000e+02 9.531250000000000000e-01
8.306250000000000000e+02 9.687500000000000000e-01
8.315625000000000000e+02 9.375000000000000000e-01
8.325468750000000000e+02 9.843750000000000000e-01
8.334843750000000000e+02 9.375000000000000000e-01
8.344687500000000000e+02 9.843750000000000000e-01
8.354843750000000000e+02 1.015625000000000000e+00
8.365156250000000000e+02 1.031250000000000000e+00
8.375156250000000000e+02 1.000000000000000000e+00
8.385156250000000000e+02 1.000000000000000000e+00
8.395156250000000000e+02 1.000000000000000000e+00
8.405000000000000000e+02 9.843750000000000000e-01
8.414687500000000000e+02 9.687500000000000000e-01
8.423750000000000000e+02 9.062500000000000000e-01
8.433281250000000000e+02 9.531250000000000000e-01
8.442500000000000000e+02 9.218750000000000000e-01
8.452343750000000000e+02 9.843750000000000000e-01
8.462500000000000000e+02 1.015625000000000000e+00
8.472968750000000000e+02 1.046875000000000000e+00
8.482968750000000000e+02 1.000000000000000000e+00
8.492031250000000000e+02 9.062500000000000000e-01
8.502812500000000000e+02 1.078125000000000000e+00
8.512812500000000000e+02 1.000000000000000000e+00
8.522968750000000000e+02 1.015625000000000000e+00
8.532656250000000000e+02 9.687500000000000000e-01
8.542500000000000000e+02 9.843750000000000000e-01
8.552656250000000000e+02 1.015625000000000000e+00
8.562187500000000000e+02 9.531250000000000000e-01
8.572343750000000000e+02 1.015625000000000000e+00
8.582812500000000000e+02 1.046875000000000000e+00
8.592656250000000000e+02 9.843750000000000000e-01
8.602656250000000000e+02 1.000000000000000000e+00
8.612968750000000000e+02 1.031250000000000000e+00
8.622187500000000000e+02 9.218750000000000000e-01
8.632500000000000000e+02 1.031250000000000000e+00
8.642968750000000000e+02 1.046875000000000000e+00
8.653437500000000000e+02 1.046875000000000000e+00
8.664375000000000000e+02 1.093750000000000000e+00
8.674218750000000000e+02 9.843750000000000000e-01
8.684687500000000000e+02 1.046875000000000000e+00
8.695000000000000000e+02 1.031250000000000000e+00
8.704531250000000000e+02 9.531250000000000000e-01
8.714375000000000000e+02 9.843750000000000000e-01
8.723750000000000000e+02 9.375000000000000000e-01
8.733281250000000000e+02 9.531250000000000000e-01
8.742968750000000000e+02 9.687500000000000000e-01
8.752031250000000000e+02 9.062500000000000000e-01
8.761718750000000000e+02 9.687500000000000000e-01
8.770937500000000000e+02 9.218750000000000000e-01
8.780156250000000000e+02 9.218750000000000000e-01
8.789687500000000000e+02 9.531250000000000000e-01
8.798437500000000000e+02 8.750000000000000000e-01
8.808125000000000000e+02 9.687500000000000000e-01
8.817656250000000000e+02 9.531250000000000000e-01
8.827187500000000000e+02 9.531250000000000000e-01
8.836875000000000000e+02 9.687500000000000000e-01
8.846250000000000000e+02 9.375000000000000000e-01
8.854062500000000000e+02 7.812500000000000000e-01
8.862812500000000000e+02 8.750000000000000000e-01
8.872656250000000000e+02 9.843750000000000000e-01
8.882656250000000000e+02 1.000000000000000000e+00
8.892968750000000000e+02 1.031250000000000000e+00
8.901875000000000000e+02 8.906250000000000000e-01
8.911562500000000000e+02 9.687500000000000000e-01
8.921875000000000000e+02 1.031250000000000000e+00
8.931250000000000000e+02 9.375000000000000000e-01
8.940781250000000000e+02 9.531250000000000000e-01
8.950625000000000000e+02 9.843750000000000000e-01
8.960312500000000000e+02 9.687500000000000000e-01
8.970000000000000000e+02 9.687500000000000000e-01
8.980625000000000000e+02 1.062500000000000000e+00
8.990312500000000000e+02 9.687500000000000000e-01
9.000468750000000000e+02 1.015625000000000000e+00
9.010625000000000000e+02 1.015625000000000000e+00
9.020312500000000000e+02 9.687500000000000000e-01
9.030468750000000000e+02 1.015625000000000000e+00
9.040625000000000000e+02 1.015625000000000000e+00
9.051406250000000000e+02 1.078125000000000000e+00
9.062187500000000000e+02 1.078125000000000000e+00
9.072968750000000000e+02 1.078125000000000000e+00
9.083593750000000000e+02 1.062500000000000000e+00
9.093593750000000000e+02 1.000000000000000000e+00
9.103437500000000000e+02 9.843750000000000000e-01
9.113281250000000000e+02 9.843750000000000000e-01
9.122812500000000000e+02 9.531250000000000000e-01
9.133125000000000000e+02 1.031250000000000000e+00
9.142656250000000000e+02 9.531250000000000000e-01
9.152187500000000000e+02 9.531250000000000000e-01
9.161875000000000000e+02 9.687500000000000000e-01
9.170781250000000000e+02 8.906250000000000000e-01
9.179843750000000000e+02 9.062500000000000000e-01
9.189375000000000000e+02 9.531250000000000000e-01
9.198281250000000000e+02 8.906250000000000000e-01
9.207968750000000000e+02 9.687500000000000000e-01
9.217812500000000000e+02 9.843750000000000000e-01
9.227500000000000000e+02 9.687500000000000000e-01
9.237343750000000000e+02 9.843750000000000000e-01
9.246406250000000000e+02 9.062500000000000000e-01
9.255468750000000000e+02 9.062500000000000000e-01
9.264687500000000000e+02 9.218750000000000000e-01
9.273281250000000000e+02 8.593750000000000000e-01
9.282656250000000000e+02 9.375000000000000000e-01
9.292031250000000000e+02 9.375000000000000000e-01
9.301250000000000000e+02 9.218750000000000000e-01
9.310937500000000000e+02 9.687500000000000000e-01
9.319843750000000000e+02 8.906250000000000000e-01
9.329218750000000000e+02 9.375000000000000000e-01
9.338281250000000000e+02 9.062500000000000000e-01
9.347187500000000000e+02 8.906250000000000000e-01
9.356718750000000000e+02 9.531250000000000000e-01
9.366250000000000000e+02 9.531250000000000000e-01
9.376093750000000000e+02 9.843750000000000000e-01
9.386406250000000000e+02 1.031250000000000000e+00
9.395625000000000000e+02 9.218750000000000000e-01
9.405000000000000000e+02 9.375000000000000000e-01
9.414531250000000000e+02 9.531250000000000000e-01
9.423593750000000000e+02 9.062500000000000000e-01
9.433125000000000000e+02 9.531250000000000000e-01
9.442656250000000000e+02 9.531250000000000000e-01
9.452656250000000000e+02 1.000000000000000000e+00
9.462968750000000000e+02 1.031250000000000000e+00
9.472343750000000000e+02 9.375000000000000000e-01
9.482031250000000000e+02 9.687500000000000000e-01
9.492187500000000000e+02 1.015625000000000000e+00
9.501406250000000000e+02 9.218750000000000000e-01
9.510781250000000000e+02 9.375000000000000000e-01
9.519687500000000000e+02 8.906250000000000000e-01
9.528906250000000000e+02 9.218750000000000000e-01
9.538593750000000000e+02 9.687500000000000000e-01
9.547812500000000000e+02 9.218750000000000000e-01
9.557656250000000000e+02 9.843750000000000000e-01
9.566718750000000000e+02 9.062500000000000000e-01
9.576250000000000000e+02 9.531250000000000000e-01
9.585312500000000000e+02 9.062500000000000000e-01
9.594218750000000000e+02 8.906250000000000000e-01
9.603125000000000000e+02 8.906250000000000000e-01
9.611406250000000000e+02 8.281250000000000000e-01
9.619375000000000000e+02 7.968750000000000000e-01
9.626718750000000000e+02 7.343750000000000000e-01
9.634687500000000000e+02 7.968750000000000000e-01
9.642968750000000000e+02 8.281250000000000000e-01
9.652031250000000000e+02 9.062500000000000000e-01
9.661406250000000000e+02 9.375000000000000000e-01
9.670156250000000000e+02 8.750000000000000000e-01
9.679375000000000000e+02 9.218750000000000000e-01
9.688437500000000000e+02 9.062500000000000000e-01
9.697500000000000000e+02 9.062500000000000000e-01
9.707187500000000000e+02 9.687500000000000000e-01
9.715781250000000000e+02 8.593750000000000000e-01
9.723593750000000000e+02 7.812500000000000000e-01
9.732187500000000000e+02 8.593750000000000000e-01
9.741250000000000000e+02 9.062500000000000000e-01
9.750468750000000000e+02 9.218750000000000000e-01
9.760468750000000000e+02 1.000000000000000000e+00
9.770781250000000000e+02 1.031250000000000000e+00
9.781093750000000000e+02 1.031250000000000000e+00
9.791250000000000000e+02 1.015625000000000000e+00
9.801250000000000000e+02 1.000000000000000000e+00
9.810937500000000000e+02 9.687500000000000000e-01
9.820312500000000000e+02 9.375000000000000000e-01
9.830000000000000000e+02 9.687500000000000000e-01
9.839531250000000000e+02 9.531250000000000000e-01
9.848906250000000000e+02 9.375000000000000000e-01
9.858750000000000000e+02 9.843750000000000000e-01
9.868593750000000000e+02 9.843750000000000000e-01
9.878281250000000000e+02 9.687500000000000000e-01
9.888125000000000000e+02 9.843750000000000000e-01
9.897343750000000000e+02 9.218750000000000000e-01
9.906718750000000000e+02 9.375000000000000000e-01
9.915781250000000000e+02 9.062500000000000000e-01
9.925156250000000000e+02 9.375000000000000000e-01
9.935000000000000000e+02 9.843750000000000000e-01
9.944843750000000000e+02 9.843750000000000000e-01
9.954531250000000000e+02 9.687500000000000000e-01
9.964218750000000000e+02 9.687500000000000000e-01
9.973437500000000000e+02 9.218750000000000000e-01
9.982968750000000000e+02 9.531250000000000000e-01
9.992187500000000000e+02 9.218750000000000000e-01
1.000140625000000000e+03 9.218750000000000000e-01
1.001031250000000000e+03 8.906250000000000000e-01
1.001875000000000000e+03 8.437500000000000000e-01
1.002656250000000000e+03 7.812500000000000000e-01
1.003406250000000000e+03 7.500000000000000000e-01
1.004187500000000000e+03 7.812500000000000000e-01
1.005031250000000000e+03 8.437500000000000000e-01
1.005937500000000000e+03 9.062500000000000000e-01
1.006796875000000000e+03 8.593750000000000000e-01
1.007609375000000000e+03 8.125000000000000000e-01
1.008484375000000000e+03 8.750000000000000000e-01
1.009359375000000000e+03 8.750000000000000000e-01
1.010234375000000000e+03 8.750000000000000000e-01
1.011140625000000000e+03 9.062500000000000000e-01
1.012031250000000000e+03 8.906250000000000000e-01
1.012937500000000000e+03 9.062500000000000000e-01
1.013859375000000000e+03 9.218750000000000000e-01
1.014750000000000000e+03 8.906250000000000000e-01
1.015593750000000000e+03 8.437500000000000000e-01
1.016500000000000000e+03 9.062500000000000000e-01
1.017406250000000000e+03 9.062500000000000000e-01
1.018265625000000000e+03 8.593750000000000000e-01
1.019187500000000000e+03 9.218750000000000000e-01
1.020093750000000000e+03 9.062500000000000000e-01
1.020984375000000000e+03 8.906250000000000000e-01
1.021953125000000000e+03 9.687500000000000000e-01
1.022890625000000000e+03 9.375000000000000000e-01
1.023875000000000000e+03 9.843750000000000000e-01
1.024906250000000000e+03 1.031250000000000000e+00
1.025875000000000000e+03 9.687500000000000000e-01
1.026859375000000000e+03 9.843750000000000000e-01
1.027843750000000000e+03 9.843750000000000000e-01
1.028750000000000000e+03 9.062500000000000000e-01
1.029671875000000000e+03 9.218750000000000000e-01
1.030578125000000000e+03 9.062500000000000000e-01
1.031359375000000000e+03 7.812500000000000000e-01
1.032156250000000000e+03 7.968750000000000000e-01
1.033140625000000000e+03 9.843750000000000000e-01
1.034359375000000000e+03 1.218750000000000000e+00
1.035421875000000000e+03 1.062500000000000000e+00
1.036515625000000000e+03 1.093750000000000000e+00
1.037500000000000000e+03 9.843750000000000000e-01
1.038515625000000000e+03 1.015625000000000000e+00
1.039531250000000000e+03 1.015625000000000000e+00
1.040468750000000000e+03 9.375000000000000000e-01
1.041281250000000000e+03 8.125000000000000000e-01
1.042078125000000000e+03 7.968750000000000000e-01
1.042812500000000000e+03 7.343750000000000000e-01
1.043625000000000000e+03 8.125000000000000000e-01
1.044468750000000000e+03 8.437500000000000000e-01
1.045281250000000000e+03 8.125000000000000000e-01
1.046187500000000000e+03 9.062500000000000000e-01
1.047109375000000000e+03 9.218750000000000000e-01
1.048031250000000000e+03 9.218750000000000000e-01
1.048953125000000000e+03 9.218750000000000000e-01
1.049890625000000000e+03 9.375000000000000000e-01
1.050765625000000000e+03 8.750000000000000000e-01
1.051671875000000000e+03 9.062500000000000000e-01
1.052531250000000000e+03 8.593750000000000000e-01
1.053453125000000000e+03 9.218750000000000000e-01
1.054390625000000000e+03 9.375000000000000000e-01
1.055312500000000000e+03 9.218750000000000000e-01
1.056296875000000000e+03 9.843750000000000000e-01
1.057328125000000000e+03 1.031250000000000000e+00
1.061812500000000000e+03 1.281250000000000000e+00
1.062750000000000000e+03 9.375000000000000000e-01
1.063718750000000000e+03 9.687500000000000000e-01
1.064625000000000000e+03 9.062500000000000000e-01
1.065500000000000000e+03 8.750000000000000000e-01
1.066437500000000000e+03 9.375000000000000000e-01
1.067375000000000000e+03 9.375000000000000000e-01
1.068296875000000000e+03 9.218750000000000000e-01
1.069234375000000000e+03 9.375000000000000000e-01
1.070156250000000000e+03 9.218750000000000000e-01
1.071109375000000000e+03 9.531250000000000000e-01
1.072078125000000000e+03 9.687500000000000000e-01
1.072984375000000000e+03 9.062500000000000000e-01
1.073906250000000000e+03 9.218750000000000000e-01
1.074812500000000000e+03 9.062500000000000000e-01
1.075718750000000000e+03 9.062500000000000000e-01
1.076640625000000000e+03 9.218750000000000000e-01
1.077468750000000000e+03 8.281250000000000000e-01
1.078343750000000000e+03 8.750000000000000000e-01
1.079265625000000000e+03 9.218750000000000000e-01
1.080156250000000000e+03 8.906250000000000000e-01
1.081156250000000000e+03 1.000000000000000000e+00
1.082093750000000000e+03 9.375000000000000000e-01
1.083109375000000000e+03 1.015625000000000000e+00
1.084062500000000000e+03 9.531250000000000000e-01
1.085015625000000000e+03 9.531250000000000000e-01
1.085937500000000000e+03 9.218750000000000000e-01
1.086812500000000000e+03 8.750000000000000000e-01
1.087687500000000000e+03 8.750000000000000000e-01
1.088515625000000000e+03 8.281250000000000000e-01
1.089328125000000000e+03 8.125000000000000000e-01
1.090187500000000000e+03 8.593750000000000000e-01
1.091046875000000000e+03 8.593750000000000000e-01
1.091953125000000000e+03 9.062500000000000000e-01
1.092937500000000000e+03 9.843750000000000000e-01
1.093890625000000000e+03 9.531250000000000000e-01
1.094906250000000000e+03 1.015625000000000000e+00
1.095890625000000000e+03 9.843750000000000000e-01
1.096859375000000000e+03 9.687500000000000000e-01
1.097828125000000000e+03 9.687500000000000000e-01
1.098750000000000000e+03 9.218750000000000000e-01
1.099703125000000000e+03 9.531250000000000000e-01
1.100640625000000000e+03 9.375000000000000000e-01
1.101531250000000000e+03 8.906250000000000000e-01
1.102453125000000000e+03 9.218750000000000000e-01
1.103343750000000000e+03 8.906250000000000000e-01
1.104187500000000000e+03 8.437500000000000000e-01
1.105062500000000000e+03 8.750000000000000000e-01
1.105953125000000000e+03 8.906250000000000000e-01
1.106812500000000000e+03 8.593750000000000000e-01
1.107734375000000000e+03 9.218750000000000000e-01
1.108656250000000000e+03 9.218750000000000000e-01
1.109531250000000000e+03 8.750000000000000000e-01
1.110421875000000000e+03 8.906250000000000000e-01
1.111328125000000000e+03 9.062500000000000000e-01
1.112218750000000000e+03 8.906250000000000000e-01
1.113140625000000000e+03 9.218750000000000000e-01
1.114000000000000000e+03 8.593750000000000000e-01
1.114890625000000000e+03 8.906250000000000000e-01
1.115812500000000000e+03 9.218750000000000000e-01
1.116687500000000000e+03 8.750000000000000000e-01
1.117640625000000000e+03 9.531250000000000000e-01
1.118593750000000000e+03 9.531250000000000000e-01
1.119515625000000000e+03 9.218750000000000000e-01
1.120484375000000000e+03 9.687500000000000000e-01
1.121437500000000000e+03 9.531250000000000000e-01
1.122375000000000000e+03 9.375000000000000000e-01
1.123312500000000000e+03 9.375000000000000000e-01
1.124234375000000000e+03 9.218750000000000000e-01
1.125156250000000000e+03 9.218750000000000000e-01
1.126187500000000000e+03 1.031250000000000000e+00
1.127125000000000000e+03 9.375000000000000000e-01
1.128109375000000000e+03 9.843750000000000000e-01
1.129078125000000000e+03 9.687500000000000000e-01
1.130015625000000000e+03 9.375000000000000000e-01
1.131046875000000000e+03 1.031250000000000000e+00
1.132062500000000000e+03 1.015625000000000000e+00
1.133046875000000000e+03 9.843750000000000000e-01
1.134062500000000000e+03 1.015625000000000000e+00
1.135015625000000000e+03 9.531250000000000000e-01
1.135953125000000000e+03 9.375000000000000000e-01
1.136843750000000000e+03 8.906250000000000000e-01
1.137703125000000000e+03 8.593750000000000000e-01
1.138625000000000000e+03 9.218750000000000000e-01
1.139656250000000000e+03 1.031250000000000000e+00
1.140609375000000000e+03 9.531250000000000000e-01
1.141625000000000000e+03 1.015625000000000000e+00
1.142593750000000000e+03 9.687500000000000000e-01
1.143578125000000000e+03 9.843750000000000000e-01
1.144546875000000000e+03 9.687500000000000000e-01
1.145484375000000000e+03 9.375000000000000000e-01
1.146421875000000000e+03 9.375000000000000000e-01
1.147312500000000000e+03 8.906250000000000000e-01
1.148234375000000000e+03 9.218750000000000000e-01
1.149125000000000000e+03 8.906250000000000000e-01
1.150031250000000000e+03 9.062500000000000000e-01
1.150953125000000000e+03 9.218750000000000000e-01
1.151828125000000000e+03 8.750000000000000000e-01
1.152734375000000000e+03 9.062500000000000000e-01
1.153625000000000000e+03 8.906250000000000000e-01
1.154468750000000000e+03 8.437500000000000000e-01
1.155359375000000000e+03 8.906250000000000000e-01
1.156187500000000000e+03 8.281250000000000000e-01
1.157078125000000000e+03 8.906250000000000000e-01
1.158015625000000000e+03 9.375000000000000000e-01
1.158968750000000000e+03 9.531250000000000000e-01
1.159921875000000000e+03 9.531250000000000000e-01
1.160843750000000000e+03 9.218750000000000000e-01
1.161812500000000000e+03 9.687500000000000000e-01
1.162765625000000000e+03 9.531250000000000000e-01
1.163734375000000000e+03 9.687500000000000000e-01
1.164718750000000000e+03 9.843750000000000000e-01
1.165640625000000000e+03 9.218750000000000000e-01
1.166609375000000000e+03 9.687500000000000000e-01
1.167515625000000000e+03 9.062500000000000000e-01
1.168468750000000000e+03 9.531250000000000000e-01
1.169421875000000000e+03 9.531250000000000000e-01
1.170328125000000000e+03 9.062500000000000000e-01
1.171171875000000000e+03 8.437500000000000000e-01
1.171968750000000000e+03 7.968750000000000000e-01
1.172781250000000000e+03 8.125000000000000000e-01
1.173578125000000000e+03 7.968750000000000000e-01
1.174468750000000000e+03 8.906250000000000000e-01
1.175453125000000000e+03 9.843750000000000000e-01
1.176406250000000000e+03 9.531250000000000000e-01
1.177296875000000000e+03 8.906250000000000000e-01
1.178250000000000000e+03 9.531250000000000000e-01
1.179234375000000000e+03 9.843750000000000000e-01
1.180125000000000000e+03 8.906250000000000000e-01
1.181078125000000000e+03 9.531250000000000000e-01
1.182015625000000000e+03 9.375000000000000000e-01
1.182890625000000000e+03 8.750000000000000000e-01
1.183843750000000000e+03 9.531250000000000000e-01
1.184796875000000000e+03 9.531250000000000000e-01
1.185734375000000000e+03 9.375000000000000000e-01
1.186703125000000000e+03 9.687500000000000000e-01
1.187656250000000000e+03 9.531250000000000000e-01
1.188562500000000000e+03 9.062500000000000000e-01
1.189468750000000000e+03 9.062500000000000000e-01
1.190390625000000000e+03 9.218750000000000000e-01
1.191281250000000000e+03 8.906250000000000000e-01
1.192234375000000000e+03 9.531250000000000000e-01
1.193187500000000000e+03 9.531250000000000000e-01
1.194156250000000000e+03 9.687500000000000000e-01
1.195140625000000000e+03 9.843750000000000000e-01
1.196078125000000000e+03 9.375000000000000000e-01
1.197031250000000000e+03 9.531250000000000000e-01
1.197921875000000000e+03 8.906250000000000000e-01
1.198812500000000000e+03 8.906250000000000000e-01
1.199734375000000000e+03 9.218750000000000000e-01
1.200656250000000000e+03 9.218750000000000000e-01
1.201578125000000000e+03 9.218750000000000000e-01
1.202515625000000000e+03 9.375000000000000000e-01
1.203421875000000000e+03 9.062500000000000000e-01
1.204359375000000000e+03 9.375000000000000000e-01
1.205281250000000000e+03 9.218750000000000000e-01
1.206156250000000000e+03 8.750000000000000000e-01
1.207093750000000000e+03 9.375000000000000000e-01
1.207984375000000000e+03 8.906250000000000000e-01
1.208843750000000000e+03 8.593750000000000000e-01
1.209718750000000000e+03 8.750000000000000000e-01
1.210640625000000000e+03 9.218750000000000000e-01
1.211546875000000000e+03 9.062500000000000000e-01
1.212468750000000000e+03 9.218750000000000000e-01
1.213406250000000000e+03 9.375000000000000000e-01
1.214328125000000000e+03 9.218750000000000000e-01
1.215265625000000000e+03 9.375000000000000000e-01
1.216203125000000000e+03 9.375000000000000000e-01
1.217125000000000000e+03 9.218750000000000000e-01
1.218046875000000000e+03 9.218750000000000000e-01
1.218953125000000000e+03 9.062500000000000000e-01
1.219843750000000000e+03 8.906250000000000000e-01
1.220765625000000000e+03 9.218750000000000000e-01
1.221703125000000000e+03 9.375000000000000000e-01
1.222609375000000000e+03 9.062500000000000000e-01
1.223546875000000000e+03 9.375000000000000000e-01
1.224500000000000000e+03 9.531250000000000000e-01
1.225406250000000000e+03 9.062500000000000000e-01
1.226328125000000000e+03 9.218750000000000000e-01
1.227265625000000000e+03 9.375000000000000000e-01
1.228140625000000000e+03 8.750000000000000000e-01
1.229046875000000000e+03 9.062500000000000000e-01
1.229937500000000000e+03 8.906250000000000000e-01
1.230843750000000000e+03 9.062500000000000000e-01
1.231750000000000000e+03 9.062500000000000000e-01
1.232640625000000000e+03 8.906250000000000000e-01
1.233546875000000000e+03 9.062500000000000000e-01
1.234437500000000000e+03 8.906250000000000000e-01
1.235296875000000000e+03 8.593750000000000000e-01
1.236203125000000000e+03 9.062500000000000000e-01
1.237125000000000000e+03 9.218750000000000000e-01
1.238000000000000000e+03 8.750000000000000000e-01
1.238906250000000000e+03 9.062500000000000000e-01
1.239796875000000000e+03 8.906250000000000000e-01
1.240718750000000000e+03 9.218750000000000000e-01
1.241640625000000000e+03 9.218750000000000000e-01
1.242453125000000000e+03 8.125000000000000000e-01
1.243203125000000000e+03 7.500000000000000000e-01
1.244093750000000000e+03 8.906250000000000000e-01
1.245031250000000000e+03 9.375000000000000000e-01
1.246015625000000000e+03 9.843750000000000000e-01
1.247062500000000000e+03 1.046875000000000000e+00
1.248078125000000000e+03 1.015625000000000000e+00
1.249078125000000000e+03 1.000000000000000000e+00
1.250031250000000000e+03 9.531250000000000000e-01
1.250968750000000000e+03 9.375000000000000000e-01
1.251875000000000000e+03 9.062500000000000000e-01
1.252750000000000000e+03 8.750000000000000000e-01
1.253656250000000000e+03 9.062500000000000000e-01
1.254578125000000000e+03 9.218750000000000000e-01
1.255515625000000000e+03 9.375000000000000000e-01
1.256484375000000000e+03 9.687500000000000000e-01
1.257500000000000000e+03 1.015625000000000000e+00
1.258500000000000000e+03 1.000000000000000000e+00
1.259578125000000000e+03 1.078125000000000000e+00
1.260531250000000000e+03 9.531250000000000000e-01
1.261500000000000000e+03 9.687500000000000000e-01
1.262453125000000000e+03 9.531250000000000000e-01
1.263359375000000000e+03 9.062500000000000000e-01
1.264312500000000000e+03 9.531250000000000000e-01
1.265265625000000000e+03 9.531250000000000000e-01
1.266203125000000000e+03 9.375000000000000000e-01
1.267171875000000000e+03 9.687500000000000000e-01
1.268156250000000000e+03 9.843750000000000000e-01
1.269062500000000000e+03 9.062500000000000000e-01
1.269984375000000000e+03 9.218750000000000000e-01
1.270906250000000000e+03 9.218750000000000000e-01
1.271812500000000000e+03 9.062500000000000000e-01
1.272734375000000000e+03 9.218750000000000000e-01
1.273656250000000000e+03 9.218750000000000000e-01
1.274625000000000000e+03 9.687500000000000000e-01
1.275546875000000000e+03 9.218750000000000000e-01
1.276437500000000000e+03 8.906250000000000000e-01
1.277343750000000000e+03 9.062500000000000000e-01
1.278218750000000000e+03 8.750000000000000000e-01
1.279125000000000000e+03 9.062500000000000000e-01
1.280046875000000000e+03 9.218750000000000000e-01
1.280953125000000000e+03 9.062500000000000000e-01
1.281921875000000000e+03 9.687500000000000000e-01
1.282843750000000000e+03 9.218750000000000000e-01
1.283781250000000000e+03 9.375000000000000000e-01
1.284718750000000000e+03 9.375000000000000000e-01
1.285625000000000000e+03 9.062500000000000000e-01
1.286531250000000000e+03 9.062500000000000000e-01
1.287421875000000000e+03 8.906250000000000000e-01
1.288265625000000000e+03 8.437500000000000000e-01
1.289156250000000000e+03 8.906250000000000000e-01
1.290031250000000000e+03 8.750000000000000000e-01
1.290953125000000000e+03 9.218750000000000000e-01
1.291875000000000000e+03 9.218750000000000000e-01
1.292828125000000000e+03 9.531250000000000000e-01
1.293781250000000000e+03 9.531250000000000000e-01
1.294703125000000000e+03 9.218750000000000000e-01
1.295625000000000000e+03 9.218750000000000000e-01
1.296531250000000000e+03 9.062500000000000000e-01
1.297437500000000000e+03 9.062500000000000000e-01
1.298343750000000000e+03 9.062500000000000000e-01
1.299203125000000000e+03 8.593750000000000000e-01
1.300109375000000000e+03 9.062500000000000000e-01
1.301031250000000000e+03 9.218750000000000000e-01
1.301953125000000000e+03 9.218750000000000000e-01
1.302875000000000000e+03 9.218750000000000000e-01
1.303718750000000000e+03 8.437500000000000000e-01
1.304593750000000000e+03 8.750000000000000000e-01
1.305453125000000000e+03 8.593750000000000000e-01
1.306296875000000000e+03 8.437500000000000000e-01
1.307171875000000000e+03 8.750000000000000000e-01
1.308062500000000000e+03 8.906250000000000000e-01
1.308890625000000000e+03 8.281250000000000000e-01
1.309765625000000000e+03 8.750000000000000000e-01
1.310656250000000000e+03 8.906250000000000000e-01
1.311500000000000000e+03 8.437500000000000000e-01
1.312406250000000000e+03 9.062500000000000000e-01
1.313328125000000000e+03 9.218750000000000000e-01
1.314218750000000000e+03 8.906250000000000000e-01
1.315140625000000000e+03 9.218750000000000000e-01
1.316078125000000000e+03 9.375000000000000000e-01
1.317031250000000000e+03 9.531250000000000000e-01
1.317968750000000000e+03 9.375000000000000000e-01
1.318859375000000000e+03 8.906250000000000000e-01
1.319765625000000000e+03 9.062500000000000000e-01
1.320640625000000000e+03 8.750000000000000000e-01
1.321500000000000000e+03 8.593750000000000000e-01
1.322375000000000000e+03 8.750000000000000000e-01
1.323265625000000000e+03 8.906250000000000000e-01
1.324156250000000000e+03 8.906250000000000000e-01
1.325093750000000000e+03 9.375000000000000000e-01
1.326031250000000000e+03 9.375000000000000000e-01
1.326921875000000000e+03 8.906250000000000000e-01
1.327828125000000000e+03 9.062500000000000000e-01
1.328718750000000000e+03 8.906250000000000000e-01
1.329546875000000000e+03 8.281250000000000000e-01
1.330437500000000000e+03 8.906250000000000000e-01
1.331328125000000000e+03 8.906250000000000000e-01
1.332218750000000000e+03 8.906250000000000000e-01
1.333171875000000000e+03 9.531250000000000000e-01
1.334171875000000000e+03 1.000000000000000000e+00
1.335093750000000000e+03 9.218750000000000000e-01
1.336015625000000000e+03 9.218750000000000000e-01
1.336921875000000000e+03 9.062500000000000000e-01
1.337859375000000000e+03 9.375000000000000000e-01
1.338796875000000000e+03 9.375000000000000000e-01
1.339718750000000000e+03 9.218750000000000000e-01
1.340671875000000000e+03 9.531250000000000000e-01
1.341640625000000000e+03 9.687500000000000000e-01
1.342593750000000000e+03 9.531250000000000000e-01
1.343546875000000000e+03 9.531250000000000000e-01
1.344453125000000000e+03 9.062500000000000000e-01
1.345375000000000000e+03 9.218750000000000000e-01
1.346281250000000000e+03 9.062500000000000000e-01
1.347187500000000000e+03 9.062500000000000000e-01
1.348109375000000000e+03 9.218750000000000000e-01
1.349046875000000000e+03 9.375000000000000000e-01
1.349984375000000000e+03 9.375000000000000000e-01
1.350937500000000000e+03 9.531250000000000000e-01
1.351859375000000000e+03 9.218750000000000000e-01
1.352828125000000000e+03 9.687500000000000000e-01
1.353796875000000000e+03 9.687500000000000000e-01
1.354703125000000000e+03 9.062500000000000000e-01
1.355609375000000000e+03 9.062500000000000000e-01
1.356453125000000000e+03 8.437500000000000000e-01
1.357296875000000000e+03 8.437500000000000000e-01
1.358171875000000000e+03 8.750000000000000000e-01
1.359015625000000000e+03 8.437500000000000000e-01
1.359921875000000000e+03 9.062500000000000000e-01
1.360890625000000000e+03 9.687500000000000000e-01
1.361812500000000000e+03 9.218750000000000000e-01
1.362781250000000000e+03 9.687500000000000000e-01
1.363703125000000000e+03 9.218750000000000000e-01
1.364625000000000000e+03 9.218750000000000000e-01
1.365546875000000000e+03 9.218750000000000000e-01
1.366406250000000000e+03 8.593750000000000000e-01
1.367312500000000000e+03 9.062500000000000000e-01
1.368203125000000000e+03 8.906250000000000000e-01
1.369046875000000000e+03 8.437500000000000000e-01
1.369921875000000000e+03 8.750000000000000000e-01
1.370781250000000000e+03 8.593750000000000000e-01
1.371625000000000000e+03 8.437500000000000000e-01
1.372546875000000000e+03 9.218750000000000000e-01
1.373468750000000000e+03 9.218750000000000000e-01
1.374375000000000000e+03 9.062500000000000000e-01
1.375328125000000000e+03 9.531250000000000000e-01
1.376265625000000000e+03 9.375000000000000000e-01
1.377234375000000000e+03 9.687500000000000000e-01
1.378187500000000000e+03 9.531250000000000000e-01
1.379125000000000000e+03 9.375000000000000000e-01
1.380046875000000000e+03 9.218750000000000000e-01
1.380968750000000000e+03 9.218750000000000000e-01
1.381812500000000000e+03 8.437500000000000000e-01
1.382687500000000000e+03 8.750000000000000000e-01
1.383562500000000000e+03 8.750000000000000000e-01
1.384406250000000000e+03 8.437500000000000000e-01
1.385312500000000000e+03 9.062500000000000000e-01
1.386265625000000000e+03 9.531250000000000000e-01
1.387171875000000000e+03 9.062500000000000000e-01
1.388156250000000000e+03 9.843750000000000000e-01
1.389109375000000000e+03 9.531250000000000000e-01
1.390078125000000000e+03 9.687500000000000000e-01
1.391125000000000000e+03 1.046875000000000000e+00
1.392078125000000000e+03 9.531250000000000000e-01
1.393046875000000000e+03 9.687500000000000000e-01
1.393984375000000000e+03 9.375000000000000000e-01
1.394875000000000000e+03 8.906250000000000000e-01
1.395781250000000000e+03 9.062500000000000000e-01
1.396625000000000000e+03 8.437500000000000000e-01
1.397468750000000000e+03 8.437500000000000000e-01
1.398312500000000000e+03 8.437500000000000000e-01
1.399140625000000000e+03 8.281250000000000000e-01
1.399968750000000000e+03 8.281250000000000000e-01
1.400859375000000000e+03 8.906250000000000000e-01
1.401734375000000000e+03 8.750000000000000000e-01
1.402671875000000000e+03 9.375000000000000000e-01
1.403656250000000000e+03 9.843750000000000000e-01
1.404625000000000000e+03 9.687500000000000000e-01
1.405609375000000000e+03 9.843750000000000000e-01
1.406531250000000000e+03 9.218750000000000000e-01
1.407453125000000000e+03 9.218750000000000000e-01
1.408375000000000000e+03 9.218750000000000000e-01
1.409265625000000000e+03 8.906250000000000000e-01
1.410171875000000000e+03 9.062500000000000000e-01
1.411093750000000000e+03 9.218750000000000000e-01
1.411953125000000000e+03 8.593750000000000000e-01
1.412718750000000000e+03 7.656250000000000000e-01
1.413531250000000000e+03 8.125000000000000000e-01
1.414312500000000000e+03 7.812500000000000000e-01
1.415109375000000000e+03 7.968750000000000000e-01
1.415906250000000000e+03 7.968750000000000000e-01
1.416781250000000000e+03 8.750000000000000000e-01
1.417687500000000000e+03 9.062500000000000000e-01
1.418578125000000000e+03 8.906250000000000000e-01
1.419515625000000000e+03 9.375000000000000000e-01
1.420453125000000000e+03 9.375000000000000000e-01
1.421375000000000000e+03 9.218750000000000000e-01
1.422296875000000000e+03 9.218750000000000000e-01
1.423203125000000000e+03 9.062500000000000000e-01
1.424078125000000000e+03 8.750000000000000000e-01
1.424984375000000000e+03 9.062500000000000000e-01
1.425875000000000000e+03 8.906250000000000000e-01
1.426781250000000000e+03 9.062500000000000000e-01
1.427765625000000000e+03 9.843750000000000000e-01
1.428750000000000000e+03 9.843750000000000000e-01
1.429718750000000000e+03 9.687500000000000000e-01
1.430703125000000000e+03 9.843750000000000000e-01
1.431687500000000000e+03 9.843750000000000000e-01
1.432625000000000000e+03 9.375000000000000000e-01
1.433562500000000000e+03 9.375000000000000000e-01
1.434437500000000000e+03 8.750000000000000000e-01
1.435375000000000000e+03 9.375000000000000000e-01
1.436296875000000000e+03 9.218750000000000000e-01
1.437187500000000000e+03 8.906250000000000000e-01
1.438140625000000000e+03 9.531250000000000000e-01
1.439093750000000000e+03 9.531250000000000000e-01
1.439968750000000000e+03 8.750000000000000000e-01
1.440890625000000000e+03 9.218750000000000000e-01
1.441812500000000000e+03 9.218750000000000000e-01
1.442703125000000000e+03 8.906250000000000000e-01
1.443609375000000000e+03 9.062500000000000000e-01
1.444515625000000000e+03 9.062500000000000000e-01
1.445406250000000000e+03 8.906250000000000000e-01
1.446328125000000000e+03 9.218750000000000000e-01
1.447203125000000000e+03 8.750000000000000000e-01
1.448093750000000000e+03 8.906250000000000000e-01
1.448968750000000000e+03 8.750000000000000000e-01
1.449812500000000000e+03 8.437500000000000000e-01
1.450750000000000000e+03 9.375000000000000000e-01
1.451734375000000000e+03 9.843750000000000000e-01
1.452656250000000000e+03 9.218750000000000000e-01
1.453687500000000000e+03 1.031250000000000000e+00
1.454703125000000000e+03 1.015625000000000000e+00
1.455656250000000000e+03 9.531250000000000000e-01
1.456578125000000000e+03 9.218750000000000000e-01
1.457468750000000000e+03 8.906250000000000000e-01
1.458375000000000000e+03 9.062500000000000000e-01
1.459265625000000000e+03 8.906250000000000000e-01
1.460125000000000000e+03 8.593750000000000000e-01
1.461015625000000000e+03 8.906250000000000000e-01
1.461890625000000000e+03 8.750000000000000000e-01
1.462750000000000000e+03 8.593750000000000000e-01
1.463625000000000000e+03 8.750000000000000000e-01
1.464453125000000000e+03 8.281250000000000000e-01
1.465328125000000000e+03 8.750000000000000000e-01
1.466187500000000000e+03 8.593750000000000000e-01
1.467093750000000000e+03 9.062500000000000000e-01
1.468000000000000000e+03 9.062500000000000000e-01
1.468890625000000000e+03 8.906250000000000000e-01
1.469796875000000000e+03 9.062500000000000000e-01
1.470687500000000000e+03 8.906250000000000000e-01
1.471578125000000000e+03 8.906250000000000000e-01
1.472515625000000000e+03 9.375000000000000000e-01
1.473453125000000000e+03 9.375000000000000000e-01
1.474375000000000000e+03 9.218750000000000000e-01
1.475328125000000000e+03 9.531250000000000000e-01
1.476296875000000000e+03 9.687500000000000000e-01
1.477250000000000000e+03 9.531250000000000000e-01
1.478218750000000000e+03 9.687500000000000000e-01
1.479140625000000000e+03 9.218750000000000000e-01
1.480031250000000000e+03 8.906250000000000000e-01
1.480921875000000000e+03 8.906250000000000000e-01
1.481796875000000000e+03 8.750000000000000000e-01
1.482625000000000000e+03 8.281250000000000000e-01
1.483515625000000000e+03 8.906250000000000000e-01
1.484453125000000000e+03 9.375000000000000000e-01
1.485406250000000000e+03 9.531250000000000000e-01
1.486437500000000000e+03 1.031250000000000000e+00
1.487390625000000000e+03 9.531250000000000000e-01
1.488359375000000000e+03 9.687500000000000000e-01
1.489296875000000000e+03 9.375000000000000000e-01
1.490171875000000000e+03 8.750000000000000000e-01
1.491078125000000000e+03 9.062500000000000000e-01
1.491937500000000000e+03 8.593750000000000000e-01
1.492812500000000000e+03 8.750000000000000000e-01
1.493671875000000000e+03 8.593750000000000000e-01
1.494515625000000000e+03 8.437500000000000000e-01
1.495375000000000000e+03 8.593750000000000000e-01
1.496281250000000000e+03 9.062500000000000000e-01
1.497140625000000000e+03 8.593750000000000000e-01
1.498031250000000000e+03 8.906250000000000000e-01
1.498937500000000000e+03 9.062500000000000000e-01
1.499781250000000000e+03 8.437500000000000000e-01
1.500671875000000000e+03 8.906250000000000000e-01
1.501546875000000000e+03 8.750000000000000000e-01
1.502359375000000000e+03 8.125000000000000000e-01
1.503250000000000000e+03 8.906250000000000000e-01
1.504156250000000000e+03 9.062500000000000000e-01
1.505015625000000000e+03 8.593750000000000000e-01
1.505906250000000000e+03 8.906250000000000000e-01
1.506718750000000000e+03 8.125000000000000000e-01
1.507484375000000000e+03 7.656250000000000000e-01
1.508281250000000000e+03 7.968750000000000000e-01
1.509031250000000000e+03 7.500000000000000000e-01
1.509906250000000000e+03 8.750000000000000000e-01
1.510781250000000000e+03 8.750000000000000000e-01
1.511625000000000000e+03 8.437500000000000000e-01
1.512515625000000000e+03 8.906250000000000000e-01
1.513390625000000000e+03 8.750000000000000000e-01
1.514187500000000000e+03 7.968750000000000000e-01
1.515046875000000000e+03 8.593750000000000000e-01
1.515875000000000000e+03 8.281250000000000000e-01
1.516656250000000000e+03 7.812500000000000000e-01
1.517500000000000000e+03 8.437500000000000000e-01
1.518406250000000000e+03 9.062500000000000000e-01
1.519328125000000000e+03 9.218750000000000000e-01
1.520218750000000000e+03 8.906250000000000000e-01
1.521171875000000000e+03 9.531250000000000000e-01
1.522109375000000000e+03 9.375000000000000000e-01
1.523000000000000000e+03 8.906250000000000000e-01
1.523906250000000000e+03 9.062500000000000000e-01
1.524656250000000000e+03 7.500000000000000000e-01
1.525093750000000000e+03 4.375000000000000000e-01
1.525593750000000000e+03 5.000000000000000000e-01
1.526453125000000000e+03 8.593750000000000000e-01
1.527265625000000000e+03 8.125000000000000000e-01
1.528125000000000000e+03 8.593750000000000000e-01
1.529031250000000000e+03 9.062500000000000000e-01
1.529953125000000000e+03 9.218750000000000000e-01
1.530890625000000000e+03 9.375000000000000000e-01
1.531906250000000000e+03 1.015625000000000000e+00
1.532921875000000000e+03 1.015625000000000000e+00
1.533906250000000000e+03 9.843750000000000000e-01
1.534859375000000000e+03 9.531250000000000000e-01
1.535796875000000000e+03 9.375000000000000000e-01
1.536718750000000000e+03 9.218750000000000000e-01
1.537656250000000000e+03 9.375000000000000000e-01
1.538515625000000000e+03 8.593750000000000000e-01
1.539406250000000000e+03 8.906250000000000000e-01
1.540312500000000000e+03 9.062500000000000000e-01
1.541140625000000000e+03 8.281250000000000000e-01
1.542000000000000000e+03 8.593750000000000000e-01
1.542843750000000000e+03 8.437500000000000000e-01
1.543718750000000000e+03 8.750000000000000000e-01
1.544625000000000000e+03 9.062500000000000000e-01
1.545546875000000000e+03 9.218750000000000000e-01
1.546437500000000000e+03 8.906250000000000000e-01
1.547343750000000000e+03 9.062500000000000000e-01
1.548234375000000000e+03 8.906250000000000000e-01
1.549109375000000000e+03 8.750000000000000000e-01
1.549984375000000000e+03 8.750000000000000000e-01
1.550859375000000000e+03 8.750000000000000000e-01
1.551703125000000000e+03 8.437500000000000000e-01
1.552468750000000000e+03 7.656250000000000000e-01
1.553203125000000000e+03 7.343750000000000000e-01
1.554078125000000000e+03 8.750000000000000000e-01
1.555015625000000000e+03 9.375000000000000000e-01
1.555953125000000000e+03 9.375000000000000000e-01
1.556937500000000000e+03 9.843750000000000000e-01
1.557875000000000000e+03 9.375000000000000000e-01
1.558796875000000000e+03 9.218750000000000000e-01
1.559656250000000000e+03 8.593750000000000000e-01
1.560500000000000000e+03 8.437500000000000000e-01
1.561343750000000000e+03 8.437500000000000000e-01
1.562203125000000000e+03 8.593750000000000000e-01
1.563062500000000000e+03 8.593750000000000000e-01
1.564140625000000000e+03 1.078125000000000000e+00
1.564906250000000000e+03 7.656250000000000000e-01
1.565812500000000000e+03 9.062500000000000000e-01
1.566703125000000000e+03 8.906250000000000000e-01
1.567515625000000000e+03 8.125000000000000000e-01
1.568328125000000000e+03 8.125000000000000000e-01
1.569109375000000000e+03 7.812500000000000000e-01
1.569890625000000000e+03 7.812500000000000000e-01
1.570687500000000000e+03 7.968750000000000000e-01
1.571437500000000000e+03 7.500000000000000000e-01
1.571859375000000000e+03 4.218750000000000000e-01
1.572671875000000000e+03 8.125000000000000000e-01
1.573125000000000000e+03 4.531250000000000000e-01
1.573546875000000000e+03 4.218750000000000000e-01
1.575000000000000000e+03 1.453125000000000000e+00
1.576031250000000000e+03 1.031250000000000000e+00
1.577453125000000000e+03 1.421875000000000000e+00
